"Latest: Time (s)","Latest: Potential (mV)","Latest: EKG (mV)"
0,-0.114774114774,-0.00529473674819
0.005,-0.04884004884,-0.0197642830463
0.01,0.030525030525,-0.0316262560225
0.015,-0.0720390720391,-0.0343842371021
0.02,-0.0695970695971,-0.0378448666651
0.025,0.045177045177,-0.0402239092245
0.03,-0.039072039072,-0.0348164505893
0.035,-0.0989010989011,-0.0318157283893
0.04,0.015873015873,-0.0346642535384
0.045,0.015873015873,-0.0320344285696
0.05,-0.100122100122,-0.0272518852198
0.055,-0.035409035409,-0.0300099151758
0.06,0.046398046398,-0.0315740548295
0.065,-0.0757020757021,-0.0273619504574
0.07,-0.0757020757021,-0.0285777556783
0.075,0.0500610500611,-0.0320697431562
0.08,-0.030525030525,-0.0281510400855
0.085,-0.100122100122,-0.0261548969097
0.09,0.013431013431,-0.0303730827861
0.095,0.030525030525,-0.0288144225767
0.1,-0.0842490842491,-0.0231814253466
0.105,-0.021978021978,-0.0235122799267
0.11,0.0708180708181,-0.0219837112546
0.115,-0.0561660561661,-0.0142463463013
0.12,-0.0549450549451,-0.0122620089688
0.125,0.0879120879121,-0.0126283404496
0.13,0.00610500610501,-0.00462022773014
0.135,-0.0561660561661,0.00219858934803
0.14,0.0757020757021,0.00373829280863
0.145,0.0793650793651,0.0118604801718
0.15,-0.0537240537241,0.0220028840431
0.155,0.014652014652,0.0223113147597
0.16,0.0866910866911,0.0212186364535
0.165,-0.0695970695971,0.0222295458492
0.17,-0.0842490842491,0.0123161449133
0.175,0.021978021978,-0.00480192746116
0.18,-0.0586080586081,-0.0168972045847
0.185,-0.123321123321,-0.0298103465115
0.19,-0.021978021978,-0.0457560001408
0.195,-0.015873015873,-0.0536040887563
0.2,-0.118437118437,-0.0555145670429
0.205,-0.0573870573871,-0.0605172701802
0.21,0.014652014652,-0.0618931084938
0.215,-0.0940170940171,-0.0567814987533
0.22,-0.0976800976801,-0.0562944061224
0.225,0.013431013431,-0.0583968973874
0.23,-0.0622710622711,-0.0547947534161
0.235,-0.1221001221,-0.0536705065058
0.24,-0.00610500610501,-0.057633627971
0.245,0.00610500610501,-0.054862100729
0.25,-0.0903540903541,-0.0472620415037
0.255,-0.00732600732601,-0.0431958278081
0.26,0.120879120879,-0.0324929578078
0.265,-0.003663003663,-0.0105875200891
0.27,0.0671550671551,0.0104759217974
0.275,0.316239316239,0.0395177647967
0.28,0.202686202686,0.0881344389149
0.285,-0.00854700854701,0.128676472428
0.29,-0.0512820512821,0.131067198926
0.295,-0.1221001221,0.0972990686899
0.3,-0.200244200244,0.0398684068958
0.305,-0.117216117216,-0.0252488422149
0.31,-0.021978021978,-0.0736814968327
0.315,-0.111111111111,-0.0964659461659
0.32,-0.103785103785,-0.105924216622
0.325,0.017094017094,-0.104942775493
0.33,-0.047619047619,-0.0905026840571
0.335,-0.105006105006,-0.0751497107453
0.34,0.00854700854701,-0.0652224695422
0.345,0.017094017094,-0.0515717758364
0.35,-0.0940170940171,-0.0377075352401
0.355,-0.031746031746,-0.0332811456319
0.36,0.04884004884,-0.0299760179757
0.365,-0.0708180708181,-0.0230444327804
0.37,-0.0708180708181,-0.0229308857239
0.375,0.0561660561661,-0.0258535238593
0.38,-0.023199023199,-0.0216753296747
0.385,-0.0903540903541,-0.0193383356908
0.39,0.031746031746,-0.0225626294739
0.395,0.039072039072,-0.0194216877156
0.4,-0.0842490842491,-0.0131102375861
0.405,-0.017094017094,-0.0143462320369
0.41,0.0793650793651,-0.0141093026583
0.415,-0.043956043956,-0.0068830687243
0.42,-0.045177045177,-0.00453739240384
0.425,0.0940170940171,-0.00440527829183
0.43,0.00854700854701,0.00345713709914
0.435,-0.0610500610501,0.00899543979868
0.44,0.0695970695971,0.00803156992503
0.445,0.0805860805861,0.0133979920177
0.45,-0.0525030525031,0.0217887100639
0.455,0.030525030525,0.0221763929694
0.46,0.145299145299,0.025372112602
0.465,0.004884004884,0.0373012669595
0.47,0.00854700854701,0.0438328886069
0.475,0.173382173382,0.0479691773617
0.48,0.0842490842491,0.0614295516073
0.485,0,0.0724856609804
0.49,0.156288156288,0.0756440305749
0.495,0.161172161172,0.085093844432
0.5,-0.002442002442,0.09600677377
0.505,0.0720390720391,0.0941911705234
0.51,0.15873015873,0.0897738396026
0.515,-0.018315018315,0.0881590301447
0.52,-0.04884004884,0.074476726568
0.525,0.045177045177,0.0507376545656
0.53,-0.0561660561661,0.029024086858
0.535,-0.144078144078,0.00324478612592
0.54,-0.0708180708181,-0.0291837162389
0.545,-0.0805860805861,-0.0566453568541
0.55,-0.184371184371,-0.0789062206541
0.555,-0.140415140415,-0.102499975829
0.56,-0.0805860805861,-0.120367801996
0.565,-0.178266178266,-0.129080788843
0.57,-0.179487179487,-0.137992153052
0.575,-0.0842490842491,-0.145582000462
0.58,-0.136752136752,-0.144812753876
0.585,-0.191697191697,-0.143059679789
0.59,-0.0989010989011,-0.144356875406
0.595,-0.0891330891331,-0.140437259636
0.6,-0.179487179487,-0.133661342183
0.605,-0.124542124542,-0.132082065474
0.61,-0.0537240537241,-0.129181782785
0.615,-0.145299145299,-0.121322873402
0.62,-0.137973137973,-0.117319554195
0.625,-0.030525030525,-0.114543008069
0.63,-0.0903540903541,-0.105390663033
0.635,-0.148962148962,-0.0980584439789
0.64,-0.0512820512821,-0.0966356332028
0.645,-0.040293040293,-0.0915661236448
0.65,-0.136752136752,-0.0845683727
0.655,-0.0708180708181,-0.0832646282264
0.66,0.014652014652,-0.0794254704608
0.665,-0.0940170940171,-0.0691334608749
0.67,-0.0940170940171,-0.0636503301581
0.675,0.028083028083,-0.0609244548672
0.68,-0.041514041514,-0.0520028705981
0.685,-0.111111111111,-0.0456796519292
0.69,-0.004884004884,-0.0465326140294
0.695,0,-0.0439419495447
0.7,-0.10989010989,-0.0398540805168
0.705,-0.045177045177,-0.0427124103948
0.71,0.041514041514,-0.0435590784226
0.715,-0.0757020757021,-0.0376837815661
0.72,-0.0769230769231,-0.0364585846239
0.725,0.04884004884,-0.0374648109619
0.73,-0.030525030525,-0.0314970243028
0.735,-0.0940170940171,-0.0276503836694
0.74,0.018315018315,-0.0298939364408
0.745,0.013431013431,-0.0275088700305
0.75,-0.106227106227,-0.0240760795252
0.755,-0.045177045177,-0.0292104967401
0.76,0.043956043956,-0.0333864078741
0.765,-0.0744810744811,-0.0307439730825
0.77,-0.0805860805861,-0.0323329937645
0.775,0.039072039072,-0.0362168213594
0.78,-0.037851037851,-0.0333027369167
0.785,-0.101343101343,-0.0320892429483
0.79,0.00854700854701,-0.0362732208145
0.795,0.013431013431,-0.0349045213814
0.8,-0.0989010989011,-0.0307195476685
0.805,-0.03663003663,-0.0331879185999
0.81,0.0525030525031,-0.0337978643539
0.815,-0.0732600732601,-0.0280865255283
0.82,-0.0781440781441,-0.0280369961766
0.825,0.045177045177,-0.0313444233888
0.83,-0.034188034188,-0.0282010433798
0.835,-0.102564102564,-0.0272529104454
0.84,0.01221001221,-0.0322345231042
0.845,0.021978021978,-0.0313274359967
0.85,-0.0866910866911,-0.0265087298141
0.855,-0.025641025641,-0.0274146623048
0.86,0.0683760683761,-0.0260120981272
0.865,-0.0525030525031,-0.017818664689
0.87,-0.047619047619,-0.0143875674884
0.875,0.103785103785,-0.0120729857547
0.88,0.025641025641,-0.000145149800137
0.885,-0.0512820512821,0.0105356838413
0.89,0.0879120879121,0.0143514710826
0.895,0.0952380952381,0.0237187426504
0.9,-0.0561660561661,0.0342004396458
0.905,-0.00732600732601,0.0319180151083
0.91,0.0586080586081,0.0243424786987
0.915,-0.0757020757021,0.0177020431769
0.92,-0.0866910866911,0.00288962007443
0.925,0.028083028083,-0.0151237089855
0.93,-0.0500610500611,-0.024909729972
0.935,-0.118437118437,-0.0339131018363
0.94,-0.018315018315,-0.0461649269571
0.945,-0.010989010989,-0.0513323095725
0.95,-0.1221001221,-0.0518929730213
0.955,-0.0647130647131,-0.0573507192314
0.96,0.015873015873,-0.0603232459171
0.965,-0.0915750915751,-0.0563992433891
0.97,-0.0952380952381,-0.0561724781268
0.975,0.020757020757,-0.0577495767699
0.98,-0.043956043956,-0.0523750039304
0.985,-0.105006105006,-0.0480092150965
0.99,0.013431013431,-0.0480994766615
0.995,0.047619047619,-0.0406763809182
1,-0.0512820512821,-0.0268723442019
1.005,0.0647130647131,-0.0146740554703
1.01,0.205128205128,0.00710083560297
1.015,0.125763125763,0.0442125735741
1.02,0.189255189255,0.0841031336315
1.025,0.333333333333,0.126842795617
1.03,0.0903540903541,0.168110152099
1.035,-0.15873015873,0.173776199073
1.04,-0.135531135531,0.12776727837
1.045,-0.117216117216,0.0563284989137
1.05,-0.177045177045,-0.0144345977254
1.055,-0.0903540903541,-0.0724835924482
1.06,0.002442002442,-0.104048756569
1.065,-0.0976800976801,-0.108822111971
1.07,-0.0964590964591,-0.104438561883
1.075,0.02442002442,-0.0952902051336
1.08,-0.042735042735,-0.0773754928096
1.085,-0.108669108669,-0.0621163855266
1.09,-0.001221001221,-0.0552035817704
1.095,0.014652014652,-0.0460670494012
1.1,-0.0989010989011,-0.0363399321799
1.105,-0.040293040293,-0.0351581492229
1.11,0.0500610500611,-0.0340599593636
1.115,-0.0671550671551,-0.0275728288535
1.12,-0.0720390720391,-0.0265042958442
1.125,0.0573870573871,-0.0281852148344
1.13,-0.015873015873,-0.0225717786458
1.135,-0.0903540903541,-0.018631245028
1.14,0.018315018315,-0.0214790107958
1.145,0.034188034188,-0.0198173467352
1.15,-0.0854700854701,-0.015286953359
1.155,-0.015873015873,-0.0172788649647
1.16,0.0879120879121,-0.0164219384324
1.165,-0.046398046398,-0.0077317872609
1.17,-0.0561660561661,-0.0048474887866
1.175,0.0842490842491,-0.00597040811538
1.18,0.014652014652,0.000437035774712
1.185,-0.0598290598291,0.00598603751176
1.19,0.0769230769231,0.00631499698544
1.195,0.0952380952381,0.0140421774514
1.2,-0.039072039072,0.0257844820689
1.205,0.047619047619,0.0297868829716
1.21,0.167277167277,0.036566660916
1.215,0.023199023199,0.051854054395
1.22,0.018315018315,0.0605062251527
1.225,0.179487179487,0.064636513183
1.23,0.0879120879121,0.0762012259692
1.235,-0.001221001221,0.0841625198727
1.24,0.147741147741,0.0833061612532
1.245,0.153846153846,0.088184744341
1.25,-0.01221001221,0.0947583026754
1.255,0.0500610500611,0.0887858410859
1.26,0.133089133089,0.0796602925808
1.265,-0.03663003663,0.0733716246969
1.27,-0.0720390720391,0.0561764499298
1.275,0.018315018315,0.0298620798474
1.28,-0.0720390720391,0.00645320956759
1.285,-0.157509157509,-0.0193182129526
1.29,-0.0805860805861,-0.0500014139113
1.295,-0.0683760683761,-0.0737208210747
1.3,-0.174603174603,-0.0898637811906
1.305,-0.140415140415,-0.106962206758
1.31,-0.0842490842491,-0.120530512388
1.315,-0.179487179487,-0.127493206834
1.32,-0.186813186813,-0.136456304751
1.325,-0.0879120879121,-0.145256233018
1.33,-0.13431013431,-0.145705501829
1.335,-0.197802197802,-0.144612280185
1.34,-0.107448107448,-0.146792407092
1.345,-0.0915750915751,-0.144040472592
1.35,-0.180708180708,-0.137849868089
1.355,-0.126984126984,-0.136123520379
1.36,-0.0537240537241,-0.132686782914
1.365,-0.144078144078,-0.123973597605
1.37,-0.147741147741,-0.119398966227
1.375,-0.032967032967,-0.11691529246
1.38,-0.0830280830281,-0.107807196538
1.385,-0.147741147741,-0.0994312267043
1.39,-0.0537240537241,-0.0969038088383
1.395,-0.041514041514,-0.0914668622415
1.4,-0.139194139194,-0.0846446796144
1.405,-0.0818070818071,-0.0842017788995
1.41,0,-0.0824155284051
1.415,-0.100122100122,-0.0747218421857
1.42,-0.108669108669,-0.0714005078414
1.425,0.001221001221,-0.0711803881295
1.43,-0.0573870573871,-0.0654852284645
1.435,-0.119658119658,-0.0613589273066
1.44,-0.010989010989,-0.0622015709821
1.445,0.004884004884,-0.057446733712
1.45,-0.108669108669,-0.049577189956
1.455,-0.0549450549451,-0.0488941216575
1.46,0.032967032967,-0.0480975865099
1.465,-0.0805860805861,-0.0420411656497
1.47,-0.0891330891331,-0.0413310084523
1.475,0.031746031746,-0.0438318683664
1.48,-0.037851037851,-0.0399026528758
1.485,-0.115995115995,-0.0379859267284
1.49,-0.013431013431,-0.0431016812475
1.495,0.00976800976801,-0.0438038805543
1.5,-0.100122100122,-0.0404034009463
1.505,-0.041514041514,-0.041977604147
1.51,0.043956043956,-0.0414270829194
1.515,-0.0744810744811,-0.0348074265744
1.52,-0.0866910866911,-0.0339722182305
1.525,0.03663003663,-0.0370372226501
1.53,-0.030525030525,-0.0337380255499
1.535,-0.103785103785,-0.031804189974
1.54,0.002442002442,-0.0358554760123
1.545,0.015873015873,-0.0350618722634
1.55,-0.0952380952381,-0.0310180481533
1.555,-0.037851037851,-0.0331064678186
1.56,0.0549450549451,-0.0333755978157
1.565,-0.0622710622711,-0.0268986374555
1.57,-0.0683760683761,-0.0251146081068
1.575,0.0659340659341,-0.0257425136667
1.58,-0.00854700854701,-0.0187664167207
1.585,-0.0891330891331,-0.0137313629465
1.59,0.034188034188,-0.0157621251489
1.595,0.0708180708181,-0.0115429314452
1.6,-0.0525030525031,-0.00164886977954
1.605,0.017094017094,0.00273283434731
1.61,0.124542124542,0.00928397560515
1.615,-0.015873015873,0.0223397932125
1.62,-0.035409035409,0.0272858727757
1.625,0.0940170940171,0.0250213912199
1.63,-0.002442002442,0.0262187833704
1.635,-0.0976800976801,0.0215753076737
1.64,-0.00610500610501,0.00590375143195
1.645,-0.001221001221,-0.00801887026288
1.65,-0.113553113553,-0.019019184911
1.655,-0.0659340659341,-0.0344945209617
1.66,0.014652014652,-0.0463861034324
1.665,-0.0915750915751,-0.0495893646394
1.67,-0.100122100122,-0.0544061177484
1.675,0.015873015873,-0.0594655458349
1.68,-0.0500610500611,-0.0564445410221
1.685,-0.123321123321,-0.0541188080398
1.69,-0.02442002442,-0.0578025890282
1.695,-0.001221001221,-0.0569465993164
1.7,-0.10989010989,-0.0523260386114
1.705,-0.0537240537241,-0.0530715844874
1.71,0.041514041514,-0.0517561878255
1.715,-0.0695970695971,-0.0434176253555
1.72,-0.0671550671551,-0.038909028293
1.725,0.108669108669,-0.0339053756748
1.73,0.0757020757021,-0.0147675612279
1.735,0.01221001221,0.00993058498891
1.74,0.214896214896,0.0347773349737
1.745,0.223443223443,0.0712781138763
1.75,0.001221001221,0.106662446006
1.755,-0.0720390720391,0.111479970475
1.76,-0.105006105006,0.0818438219247
1.765,-0.20757020757,0.0295788677611
1.77,-0.185592185592,-0.034140780472
1.775,-0.042735042735,-0.0878494165339
1.78,-0.0647130647131,-0.113543294741
1.785,-0.114774114774,-0.118464873128
1.79,0.001221001221,-0.11254385008
1.795,0.02442002442,-0.0929199590546
1.8,-0.0891330891331,-0.0679248922337
1.805,-0.031746031746,-0.0516597237339
1.81,0.0659340659341,-0.0381269062737
1.815,-0.0537240537241,-0.0222954239702
1.82,-0.0659340659341,-0.0153519697233
1.825,0.0659340659341,-0.0146242825349
1.83,-0.00610500610501,-0.00880779669273
1.835,-0.0854700854701,-0.00578640129604
1.84,0.02442002442,-0.0102735669241
1.845,0.046398046398,-0.0101340413725
1.85,-0.0732600732601,-0.00616764311417
1.855,-0.017094017094,-0.0084862126685
1.86,0.0842490842491,-0.00913078916176
1.865,-0.039072039072,-0.00258083795989
1.87,-0.0512820512821,-0.000967355488857
1.875,0.0879120879121,-0.00247370907125
1.88,0.013431013431,0.00360686392776
1.885,-0.0708180708181,0.00795957112702
1.89,0.0500610500611,0.00502660120503
1.895,0.0793650793651,0.0076696878328
1.9,-0.04884004884,0.014933159351
1.905,0.023199023199,0.0159751572678
1.91,0.140415140415,0.0199047229157
1.915,-0.001221001221,0.0321334611326
1.92,-0.00976800976801,0.038132539957
1.925,0.151404151404,0.0400734567635
1.93,0.0769230769231,0.0507004572589
1.935,-0.017094017094,0.0598645011634
1.94,0.129426129426,0.0612669659401
1.945,0.155067155067,0.068957563761
1.95,0.001221001221,0.0803493893364
1.955,0.0793650793651,0.0820528154664
1.96,0.194139194139,0.0840844304433
1.965,0.03663003663,0.0928307838329
1.97,0.010989010989,0.0928450950329
1.975,0.153846153846,0.0855205829414
1.98,0.041514041514,0.082753884906
1.985,-0.0732600732601,0.0736706618072
1.99,0.00732600732601,0.0511030210369
1.995,-0.001221001221,0.027814058982
2,-0.133089133089,0.00531347819197
2.005,-0.10989010989,-0.0241381029677
2.01,-0.0561660561661,-0.0530381547703
2.015,-0.155067155067,-0.0748696101512
2.02,-0.177045177045,-0.0968566159846
2.025,-0.0940170940171,-0.117622944975
2.03,-0.145299145299,-0.129676126451
2.035,-0.206349206349,-0.138937516546
2.04,-0.115995115995,-0.148947126111
2.045,-0.0976800976801,-0.151112724362
2.05,-0.192918192918,-0.147556428407
2.055,-0.145299145299,-0.147587620867
2.06,-0.0695970695971,-0.145885154999
2.065,-0.153846153846,-0.138349469276
2.07,-0.163614163614,-0.134066940576
2.075,-0.0647130647131,-0.132399905323
2.08,-0.108669108669,-0.125680230686
2.085,-0.174603174603,-0.120250283373
2.09,-0.0793650793651,-0.12017419388
2.095,-0.0549450549451,-0.115873345387
2.1,-0.148962148962,-0.107978925829
2.105,-0.100122100122,-0.105068615998
2.11,-0.020757020757,-0.101316348576
2.115,-0.114774114774,-0.0926039817787
2.12,-0.1221001221,-0.088410909869
2.125,-0.004884004884,-0.0868199294359
2.13,-0.0549450549451,-0.0786348555423
2.135,-0.126984126984,-0.071251809028
2.14,-0.026862026862,-0.0699627603306
2.145,0,-0.064755151582
2.15,-0.113553113553,-0.0567225019921
2.155,-0.0610500610501,-0.0555982705391
2.16,0.026862026862,-0.0544178808229
2.165,-0.0818070818071,-0.0479076411097
2.17,-0.0964590964591,-0.0466240167343
2.175,0.026862026862,-0.048823693204
2.18,-0.032967032967,-0.0443884943746
2.185,-0.111111111111,-0.040944543727
2.19,-0.013431013431,-0.0440873213723
2.195,0.00732600732601,-0.0435246551147
2.2,-0.102564102564,-0.0398915857547
2.205,-0.0500610500611,-0.0421780931245
2.21,0.046398046398,-0.0427294739461
2.215,-0.0695970695971,-0.0363550929461
2.22,-0.0866910866911,-0.0347916575964
2.225,0.032967032967,-0.0372909752179
2.23,-0.026862026862,-0.033835723135
2.235,-0.108669108669,-0.0318634369329
2.24,-0.00854700854701,-0.0366734576204
2.245,0.00610500610501,-0.0377918785946
2.25,-0.108669108669,-0.0362124227146
2.255,-0.0610500610501,-0.041314367743
2.26,0.034188034188,-0.0452685866522
2.265,-0.0757020757021,-0.0420143452327
2.27,-0.0915750915751,-0.0422929943651
2.275,0.026862026862,-0.0453279567041
2.28,-0.034188034188,-0.0417796392244
2.285,-0.113553113553,-0.0394785803821
2.29,-0.013431013431,-0.0437355912601
2.295,0.00732600732601,-0.0438984762906
2.3,-0.103785103785,-0.0406095887414
2.305,-0.046398046398,-0.0428765508642
2.31,0.0549450549451,-0.0426135107971
2.315,-0.0586080586081,-0.0343954843401
2.32,-0.0732600732601,-0.0302591511786
2.325,0.0610500610501,-0.0292877996464
2.33,0,-0.0211526017008
2.335,-0.0720390720391,-0.0137553241373
2.34,0.0573870573871,-0.0115782370007
2.345,0.0940170940171,-0.00206239664526
2.35,-0.043956043956,0.0122921311872
2.355,0.013431013431,0.0179848627687
2.36,0.124542124542,0.0224226961322
2.365,-0.013431013431,0.0319583846489
2.37,-0.040293040293,0.0333983298225
2.375,0.0854700854701,0.0275493230065
2.38,-0.001221001221,0.0255597708003
2.385,-0.103785103785,0.0189072527526
2.39,-0.020757020757,0.00155708690357
2.395,-0.004884004884,-0.0141914812403
2.4,-0.119658119658,-0.0262463247183
2.405,-0.0757020757021,-0.0420895537391
2.41,0.00976800976801,-0.0541687549457
2.415,-0.0989010989011,-0.0572673720925
2.42,-0.114774114774,-0.062193014318
2.425,0.002442002442,-0.0681785075726
2.43,-0.045177045177,-0.0656949840364
2.435,-0.119658119658,-0.0619266324975
2.44,-0.032967032967,-0.0632911790154
2.445,-0.003663003663,-0.0610140180487
2.45,-0.111111111111,-0.0556198823456
2.455,-0.0573870573871,-0.0557714596888
2.46,0.0537240537241,-0.05349676064
2.465,-0.04884004884,-0.0424501009273
2.47,-0.0512820512821,-0.0335775248421
2.475,0.111111111111,-0.0248767069851
2.48,0.0500610500611,-0.00581192440604
2.485,-0.01221001221,0.0138181259815
2.49,0.190476190476,0.03089248141
2.495,0.211233211233,0.0603446736725
2.5,-0.025641025641,0.0907876686617
2.505,-0.0964590964591,0.0919361143898
2.51,-0.0805860805861,0.0617361077783
2.515,-0.152625152625,0.0165655158129
2.52,-0.141636141636,-0.0330399807135
2.525,-0.00854700854701,-0.0718428186855
2.53,-0.041514041514,-0.0869072002814
2.535,-0.111111111111,-0.0876295842303
2.54,-0.004884004884,-0.0842067560177
2.545,0.017094017094,-0.0717727234708
2.55,-0.0952380952381,-0.0554551510876
2.555,-0.042735042735,-0.0471668617306
2.56,0.0622710622711,-0.0398507279845
2.565,-0.0549450549451,-0.0276598265854
2.57,-0.0769230769231,-0.0223055541523
2.575,0.0732600732601,-0.0218085713312
2.58,0.01221001221,-0.0137659662039
2.585,-0.0842490842491,-0.00665072241551
2.59,0.020757020757,-0.00817641473035
2.595,0.046398046398,-0.00724901693629
2.6,-0.0793650793651,-0.00387811486657
2.605,-0.030525030525,-0.00809490371002
2.61,0.0805860805861,-0.0114350644288
2.615,-0.043956043956,-0.00696849977351
2.62,-0.0659340659341,-0.0068655300089
2.625,0.0683760683761,-0.0105047859602
2.63,0.00854700854701,-0.00669494360919
2.635,-0.0793650793651,-0.00330418233126
2.64,0.031746031746,-0.00649057060798
2.645,0.0659340659341,-0.00455058202597
2.65,0.0512820512821,0.00715678395266
2.655,0.273504273504,0.0319843576221
2.66,0.252747252747,0.0775527876676
2.665,0.015873015873,0.122322168116
2.67,-0.03663003663,0.133202907365
2.675,0.0952380952381,0.115720764022
2.68,0.029304029304,0.0942182504594
2.685,-0.0622710622711,0.0704817444245
2.69,0.0512820512821,0.0437742692271
2.695,0.0989010989011,0.0289829388825
2.7,-0.03663003663,0.0261611364946
2.705,0.023199023199,0.0221989775313
2.71,0.148962148962,0.0234765321835
2.715,0.002442002442,0.0346994417201
2.72,-0.029304029304,0.0395613674963
2.725,0.105006105006,0.0369054528534
2.73,0.017094017094,0.0379141531848
2.735,-0.0793650793651,0.0341740738539
2.74,0.003663003663,0.0196636611286
2.745,-0.00732600732601,0.00523752795432
2.75,-0.137973137973,-0.0096957796641
2.755,-0.117216117216,-0.0337262795706
2.76,-0.0586080586081,-0.0592047835723
2.765,-0.155067155067,-0.0787788389434
2.77,-0.173382173382,-0.0988779417651
2.775,-0.0805860805861,-0.117385228574
2.78,-0.123321123321,-0.125949190178
2.785,-0.194139194139,-0.130971622147
2.79,-0.113553113553,-0.13811330502
2.795,-0.0903540903541,-0.139741016858
2.8,-0.179487179487,-0.136610396555
2.805,-0.140415140415,-0.137068318637
2.81,-0.0634920634921,-0.136164973413
2.815,-0.139194139194,-0.12935144132
2.82,-0.151404151404,-0.124887705113
2.825,-0.0512820512821,-0.122403308057
2.83,-0.0964590964591,-0.11476055563
2.835,-0.163614163614,-0.10863852505
2.84,-0.0744810744811,-0.108562282312
2.845,-0.04884004884,-0.105164878369
2.85,-0.141636141636,-0.0985642476879
2.855,-0.0989010989011,-0.0970136175735
2.86,-0.00976800976801,-0.0944588648741
2.865,-0.103785103785,-0.0860236871684
2.87,-0.1221001221,-0.0816603550003
2.875,-0.00854700854701,-0.0808933376134
2.88,-0.0525030525031,-0.0744324242198
2.885,-0.125763125763,-0.0685601498853
2.89,-0.028083028083,-0.068341820821
2.895,0.01221001221,-0.0634529696532
2.9,-0.102564102564,-0.0542402213112
2.905,-0.0622710622711,-0.0514728225348
2.91,0.030525030525,-0.0496822905578
2.915,-0.0769230769231,-0.0432388777858
2.92,-0.101343101343,-0.0424553446738
2.925,0.017094017094,-0.0463461294046
2.93,-0.031746031746,-0.0442700289911
2.935,-0.111111111111,-0.0423461338197
2.94,-0.004884004884,-0.045527245949
2.945,0.026862026862,-0.0430279181968
2.95,-0.0952380952381,-0.0359993220904
2.955,-0.047619047619,-0.0356442868023
2.96,0.0549450549451,-0.0351446308867
2.965,-0.0610500610501,-0.0283574263795
2.97,-0.0842490842491,-0.0267712257685
2.975,0.042735042735,-0.029669122304
2.98,-0.010989010989,-0.0260701988622
2.985,-0.0989010989011,-0.0230944704027
2.99,-0.004884004884,-0.0272266352488
2.995,0.020757020757,-0.0282903725317
3,-0.0952380952381,-0.0262968834383
3.005,-0.0500610500611,-0.0306028282205
3.01,0.04884004884,-0.0338327284993
3.015,-0.0671550671551,-0.0300794058267
3.02,-0.0927960927961,-0.0309067470751
3.025,0.021978021978,-0.0362563083508
3.03,-0.026862026862,-0.0356892858584
3.035,-0.106227106227,-0.0351897224648
3.04,-0.00610500610501,-0.0397722941479
3.045,0.018315018315,-0.0393058014779
3.05,-0.100122100122,-0.0350340230956
3.055,-0.0586080586081,-0.0375647961091
3.06,0.042735042735,-0.0399324933833
3.065,-0.0622710622711,-0.0353618069632
3.07,-0.0781440781441,-0.0339675071828
3.075,0.0561660561661,-0.0345053334414
3.08,0,-0.0268255144959
3.085,-0.0866910866911,-0.0195066229228
3.09,0.02442002442,-0.0191794921868
3.095,0.0634920634921,-0.0142966004161
3.1,-0.0634920634921,-0.00520147968504
3.105,-0.00610500610501,-0.00297921172573
3.11,0.118437118437,0.000634917007849
3.115,-0.013431013431,0.0123214339125
3.12,-0.039072039072,0.018217426561
3.125,0.108669108669,0.0185441148427
3.13,0.037851037851,0.0252527670365
3.135,-0.0695970695971,0.029187078424
3.14,0.02442002442,0.0221876106462
3.145,0.034188034188,0.0152705657396
3.15,-0.101343101343,0.00865655463606
3.155,-0.0671550671551,-0.00706477525269
3.16,0.025641025641,-0.0231813161317
3.165,-0.0818070818071,-0.0313362035401
3.17,-0.106227106227,-0.0408298921371
3.175,0.004884004884,-0.051314274195
3.18,-0.041514041514,-0.0533666913191
3.185,-0.120879120879,-0.0537097874367
3.19,-0.030525030525,-0.0584436447454
3.195,-0.004884004884,-0.0586054000495
3.2,-0.125763125763,-0.0555311326097
3.205,-0.0854700854701,-0.0595437216552
3.21,0.014652014652,-0.0635412592413
3.215,-0.0769230769231,-0.059921847509
3.22,-0.0903540903541,-0.0576740387825
3.225,0.0549450549451,-0.0552763893611
3.23,0.020757020757,-0.0420384076568
3.235,-0.045177045177,-0.0254048428084
3.24,0.101343101343,-0.011071865691
3.245,0.192918192918,0.0141861734966
3.25,0.0842490842491,0.0503516810321
3.255,0.152625152625,0.0825607264592
3.26,0.201465201465,0.110429090329
3.265,-0.0915750915751,0.12516217589
3.27,-0.191697191697,0.101313828641
3.275,-0.0903540903541,0.0448103668231
3.28,-0.0976800976801,-0.0129333489131
3.285,-0.144078144078,-0.0587729594775
3.29,-0.034188034188,-0.0898487141812
3.295,0.015873015873,-0.0976212630776
3.3,-0.0940170940171,-0.0878799505337
3.305,-0.0525030525031,-0.0772369774236
3.31,0.043956043956,-0.0649038364892
3.315,-0.0634920634921,-0.048157243788
3.32,-0.0891330891331,-0.0389768479288
3.325,0.034188034188,-0.0368451156994
3.33,-0.021978021978,-0.0309692218941
3.335,-0.106227106227,-0.0277157850894
3.34,-0.003663003663,-0.0319851510085
3.345,0.037851037851,-0.0316750199621
3.35,-0.0891330891331,-0.0264661685231
3.355,-0.0500610500611,-0.0278076733721
3.36,0.0598290598291,-0.0293068301229
3.365,-0.0512820512821,-0.0237913214093
3.37,-0.0732600732601,-0.0220396443412
3.375,0.0622710622711,-0.0233635296014
3.38,0.00610500610501,-0.0170560573039
3.385,-0.0866910866911,-0.0113699284687
3.39,0.01221001221,-0.0136288868741
3.395,0.04884004884,-0.0128445666667
3.4,-0.0695970695971,-0.00822986580047
3.405,-0.023199023199,-0.0096800750434
3.41,0.0940170940171,-0.0096209542313
3.415,-0.020757020757,-0.00116996563766
3.42,-0.045177045177,0.00354018638243
3.425,0.102564102564,0.00480914716803
3.43,0.0573870573871,0.0145720227389
3.435,-0.037851037851,0.0249646567812
3.44,0.0903540903541,0.0287925151706
3.445,0.136752136752,0.0382609802728
3.45,-0.013431013431,0.0520233405764
3.455,0.040293040293,0.056120335342
3.46,0.173382173382,0.0588759750664
3.465,0.043956043956,0.0692504393841
3.47,0.00610500610501,0.0739097477155
3.475,0.166056166056,0.0728144047287
3.48,0.0964590964591,0.078891870069
3.485,-0.032967032967,0.0823624507918
3.49,0.0671550671551,0.0733773706768
3.495,0.0781440781441,0.0636983439974
3.5,-0.0793650793651,0.0538305870649
3.505,-0.0647130647131,0.0323413840801
3.51,0,0.00617295104196
3.515,-0.117216117216,-0.0162288029941
3.52,-0.156288156288,-0.042276239791
3.525,-0.0708180708181,-0.0703796359869
3.53,-0.115995115995,-0.0903091208741
3.535,-0.197802197802,-0.106540259998
3.54,-0.1221001221,-0.124097062174
3.545,-0.0952380952381,-0.134616302021
3.55,-0.191697191697,-0.138212467991
3.555,-0.155067155067,-0.14371085163
3.56,-0.0757020757021,-0.146539126425
3.565,-0.153846153846,-0.142124924642
3.57,-0.174603174603,-0.139469483518
3.575,-0.0781440781441,-0.139239236292
3.58,-0.111111111111,-0.133822939499
3.585,-0.179487179487,-0.12860167078
3.59,-0.0927960927961,-0.12827002049
3.595,-0.0598290598291,-0.124039393385
3.6,-0.157509157509,-0.116137153179
3.605,-0.119658119658,-0.113632699687
3.61,-0.028083028083,-0.111034445324
3.615,-0.112332112332,-0.102560884661
3.62,-0.130647130647,-0.0971548839181
3.625,-0.015873015873,-0.0945367358408
3.63,-0.0549450549451,-0.0858307022536
3.635,-0.135531135531,-0.0777648436684
3.64,-0.047619047619,-0.0766842841257
3.645,-0.00854700854701,-0.0730426042336
3.65,-0.117216117216,-0.0661659546628
3.655,-0.0769230769231,-0.0653321858605
3.66,0.021978021978,-0.06435726757
3.665,-0.0805860805861,-0.0572405336628
3.67,-0.102564102564,-0.0543307443188
3.675,0.019536019536,-0.0551534568305
3.68,-0.02442002442,-0.0494363065316
3.685,-0.111111111111,-0.0439798018846
3.69,-0.015873015873,-0.0452910581969
3.695,0.019536019536,-0.0432675432191
3.7,-0.0976800976801,-0.0377242610151
3.705,-0.0598290598291,-0.0389079628495
3.71,0.04884004884,-0.040083668291
3.715,-0.0647130647131,-0.0345045609105
3.72,-0.0927960927961,-0.0333920894359
3.725,0.025641025641,-0.0370473788555
3.73,-0.025641025641,-0.0351068297924
3.735,-0.111111111111,-0.0339829012284
3.74,-0.014652014652,-0.0392696716475
3.745,0.028083028083,-0.039805529927
3.75,-0.0903540903541,-0.0349769477384
3.755,-0.0549450549451,-0.0357235811421
3.76,0.04884004884,-0.0364833582342
3.765,-0.0622710622711,-0.0310260854455
3.77,-0.0866910866911,-0.030108464201
3.775,0.040293040293,-0.0331136538657
3.78,-0.00854700854701,-0.0291571966513
3.785,-0.0952380952381,-0.0251543586894
3.79,0.002442002442,-0.0276126952647
3.795,0.046398046398,-0.0257542132234
3.8,-0.0818070818071,-0.0194682390893
3.805,-0.042735042735,-0.0201631355317
3.81,0.0622710622711,-0.0216283678487
3.815,-0.0525030525031,-0.0170061170114
3.82,-0.0818070818071,-0.0173400988303
3.825,0.046398046398,-0.0221340862948
3.83,-0.004884004884,-0.0201258519076
3.835,-0.0964590964591,-0.0181844327396
3.84,0.003663003663,-0.0228300873085
3.845,0.04884004884,-0.022760895358
3.85,-0.0757020757021,-0.0173439947091
3.855,-0.026862026862,-0.0174501183449
3.86,0.103785103785,-0.015465156344
3.865,-0.029304029304,-0.00465063926565
3.87,-0.0634920634921,0.000681337253736
3.875,0.0940170940171,0.000305266972334
3.88,0.0549450549451,0.00834404798606
3.885,-0.0537240537241,0.0176861343416
3.89,0.0598290598291,0.0193550756555
3.895,0.103785103785,0.0244337944873
3.9,-0.04884004884,0.0325054012877
3.905,-0.015873015873,0.0300263694361
3.91,0.0805860805861,0.0232664691053
3.915,-0.0525030525031,0.0199294217955
3.92,-0.0989010989011,0.00892167486891
3.925,0.013431013431,-0.00906579694789
3.93,-0.034188034188,-0.021139817343
3.935,-0.118437118437,-0.031175528955
3.94,-0.028083028083,-0.0441585931447
3.945,0.00610500610501,-0.0501684852334
3.95,-0.107448107448,-0.0495557988335
3.955,-0.0757020757021,-0.0532342668442
3.96,0.020757020757,-0.0562039741787
3.965,-0.0781440781441,-0.0524754329069
3.97,-0.105006105006,-0.0520549619165
3.975,0.00610500610501,-0.0552541462573
3.98,-0.034188034188,-0.0524896575204
3.985,-0.111111111111,-0.0494427102682
3.99,-0.00854700854701,-0.0510436151334
3.995,0.04884004884,-0.0460732780653
4,-0.0659340659341,-0.0340568193431
4.005,-0.00610500610501,-0.0259744381238
4.01,0.141636141636,-0.0142774302707
4.015,0.037851037851,0.0086422382451
4.02,0.0695970695971,0.0315565254673
4.025,0.278388278388,0.0580129808127
4.03,0.161172161172,0.0966505223168
4.035,-0.0927960927961,0.121250313434
4.04,-0.10989010989,0.104778841351
4.045,-0.0952380952381,0.0585302091723
4.05,-0.168498168498,0.00335458692172
4.055,-0.112332112332,-0.049522307918
4.06,-0.004884004884,-0.0847521962928
4.065,-0.0830280830281,-0.0959025340888
4.07,-0.107448107448,-0.0965323327385
4.075,0.014652014652,-0.0920970944538
4.08,-0.023199023199,-0.0775965101462
4.085,-0.108669108669,-0.0626238814086
4.09,-0.014652014652,-0.055476689575
4.095,0.034188034188,-0.0465124483804
4.1,-0.0891330891331,-0.0351543952231
4.105,-0.04884004884,-0.0319810871726
4.11,0.0659340659341,-0.0300954063858
4.115,-0.047619047619,-0.0219811015603
4.12,-0.0818070818071,-0.0190600316309
4.125,0.046398046398,-0.0217104624676
4.13,0.003663003663,-0.0183318819152
4.135,-0.0879120879121,-0.0148646792882
4.14,0.00854700854701,-0.0179643450504
4.145,0.0586080586081,-0.0167371580279
4.15,-0.0671550671551,-0.0103414560252
4.155,-0.029304029304,-0.0101318123585
4.16,0.0903540903541,-0.00979259460127
4.165,-0.028083028083,-0.00212973735772
4.17,-0.0659340659341,0.000567442442185
4.175,0.0720390720391,-0.00226630313717
4.18,0.028083028083,0.00165866854237
4.185,-0.0659340659341,0.00615562449021
4.19,0.041514041514,0.0043587259318
4.195,0.102564102564,0.0081907303984
4.2,-0.035409035409,0.0183085131694
4.205,0.00854700854701,0.0217649342856
4.21,0.137973137973,0.0249686666183
4.215,0.013431013431,0.0356806877871
4.22,-0.018315018315,0.0411241715751
4.225,0.151404151404,0.0421271485394
4.23,0.106227106227,0.0528714555059
4.235,-0.014652014652,0.0645089332567
4.24,0.10989010989,0.0669467628185
4.245,0.157509157509,0.0725213330215
4.25,-0.01221001221,0.0809193372335
4.255,0.030525030525,0.0776655752856
4.26,0.151404151404,0.0709715493644
4.265,-0.00610500610501,0.069678796053
4.27,-0.0671550671551,0.0595086626506
4.275,0.030525030525,0.0384564703947
4.28,-0.040293040293,0.0188660540031
4.285,-0.148962148962,-0.00343135161811
4.29,-0.0854700854701,-0.0333097752049
4.295,-0.0695970695971,-0.0598260984755
4.3,-0.175824175824,-0.0803028594386
4.305,-0.157509157509,-0.10225451027
4.31,-0.0805860805861,-0.12054289122
4.315,-0.162393162393,-0.129486730317
4.32,-0.190476190476,-0.137479164467
4.325,-0.0891330891331,-0.145218674061
4.33,-0.115995115995,-0.144590076774
4.335,-0.194139194139,-0.141370110091
4.34,-0.115995115995,-0.142313968545
4.345,-0.0781440781441,-0.139780415855
4.35,-0.172161172161,-0.133244116868
4.355,-0.142857142857,-0.131521714956
4.36,-0.0549450549451,-0.130062616124
4.365,-0.129426129426,-0.122975268828
4.37,-0.156288156288,-0.118483231515
4.375,-0.04884004884,-0.117054061291
4.38,-0.0744810744811,-0.109903478144
4.385,-0.153846153846,-0.102328724002
4.39,-0.0720390720391,-0.10067457249
4.395,-0.034188034188,-0.0966047830965
4.4,-0.130647130647,-0.0892815909731
4.405,-0.0940170940171,-0.0871733814817
4.41,0.00732600732601,-0.0844140591301
4.415,-0.0818070818071,-0.0749154621945
4.42,-0.115995115995,-0.0689809129127
4.425,0.002442002442,-0.0676967552669
4.43,-0.032967032967,-0.0612198819854
4.435,-0.118437118437,-0.0551304635426
4.44,-0.032967032967,-0.0559316351985
4.445,0.00610500610501,-0.0542284927757
4.45,-0.106227106227,-0.0492422407193
4.455,-0.0720390720391,-0.0505459606898
4.46,0.037851037851,-0.0516609367874
4.465,-0.0683760683761,-0.0456617775233
4.47,-0.100122100122,-0.0434667760777
4.475,0.018315018315,-0.0459134769295
4.48,-0.015873015873,-0.0423057627591
4.485,-0.106227106227,-0.0382449251766
4.49,-0.019536019536,-0.0406249045795
4.495,0.02442002442,-0.0398753790233
4.5,-0.0964590964591,-0.0352466450762
4.505,-0.0647130647131,-0.0372246665142
4.51,0.043956043956,-0.0397212388841
4.515,-0.0598290598291,-0.0353092440029
4.52,-0.0952380952381,-0.0345096328397
4.525,0.025641025641,-0.0381125736244
4.53,-0.013431013431,-0.0354991055515
4.535,-0.102564102564,-0.0324510129926
4.54,-0.01221001221,-0.0356096294186
4.545,0.037851037851,-0.0347040001496
4.55,-0.0830280830281,-0.0287560001127
4.555,-0.0537240537241,-0.0289171574985
4.56,0.0573870573871,-0.0298000558741
4.565,-0.04884004884,-0.0241720851128
4.57,-0.0891330891331,-0.0229144334236
4.575,0.040293040293,-0.0266855974641
4.58,-0.001221001221,-0.0240666991774
4.585,-0.101343101343,-0.0212667354455
4.59,-0.015873015873,-0.0261042452984
4.595,0.031746031746,-0.0283415882248
4.6,-0.0903540903541,-0.0261835912327
4.605,-0.0586080586081,-0.0298662646449
4.61,0.0537240537241,-0.0332635103773
4.615,-0.046398046398,-0.0286836407174
4.62,-0.0781440781441,-0.0265456833477
4.625,0.0586080586081,-0.0272423933367
4.63,0.017094017094,-0.0199670396559
4.635,-0.0793650793651,-0.0120848727448
4.64,0.025641025641,-0.0113294025059
4.645,0.0927960927961,-0.00588193968635
4.65,-0.047619047619,0.00543038331576
4.655,-0.00732600732601,0.00954125283249
4.66,0.123321123321,0.012618757351
4.665,-0.00610500610501,0.0225622621227
4.67,-0.0598290598291,0.0256549816468
4.675,0.0537240537241,0.0191186845967
4.68,-0.004884004884,0.0143475807588
4.685,-0.10989010989,0.00631191720105
4.69,-0.029304029304,-0.0105208541615
4.695,0.00976800976801,-0.0241805415246
4.7,-0.10989010989,-0.0319566197969
4.705,-0.0891330891331,-0.0436842361459
4.71,0.00854700854701,-0.0542899711843
4.715,-0.0830280830281,-0.0566415519443
4.72,-0.112332112332,-0.0597944447377
4.725,0.004884004884,-0.0642804667298
4.73,-0.028083028083,-0.0606522397384
4.735,-0.120879120879,-0.0556179499464
4.74,-0.034188034188,-0.056904419266
4.745,0.00854700854701,-0.055373101018
4.75,-0.103785103785,-0.0499785078963
4.755,-0.0683760683761,-0.050438596527
4.76,0.0549450549451,-0.0499192823102
4.765,-0.026862026862,-0.0397764875746
4.77,-0.039072039072,-0.0291944293801
4.775,0.131868131868,-0.0173636834044
4.78,0.133089133089,0.00816270136566
4.785,0.0683760683761,0.0407275581847
4.79,0.21978021978,0.0718151323159
4.795,0.202686202686,0.106634842063
4.8,-0.106227106227,0.128021541033
4.805,-0.169719169719,0.106636256679
4.81,-0.0891330891331,0.0517702012137
4.815,-0.131868131868,-0.00690311274549
4.82,-0.136752136752,-0.0570726760849
4.825,-0.00732600732601,-0.0902537411778
4.83,-0.021978021978,-0.0979167562387
4.835,-0.107448107448,-0.0909397234068
4.84,-0.019536019536,-0.0825561471935
4.845,0.037851037851,-0.0682122482592
4.85,-0.0854700854701,-0.0499225751661
4.855,-0.0561660561661,-0.0404460996298
4.86,0.0622710622711,-0.0345743426628
4.865,-0.037851037851,-0.0238984591324
4.87,-0.0793650793651,-0.0185188640088
4.875,0.04884004884,-0.0192714444066
4.88,0.017094017094,-0.0144519842042
4.885,-0.0818070818071,-0.00935860341254
4.89,0.010989010989,-0.0113789949702
4.895,0.0781440781441,-0.00942800928602
4.9,-0.0622710622711,-0.00188464556311
4.905,-0.030525030525,-0.00137555875085
4.91,0.0903540903541,-0.00239218425096
4.915,-0.025641025641,0.00329460261081
4.92,-0.0744810744811,0.00385000754363
4.925,0.0598290598291,-0.00188200540623
4.93,0.029304029304,-0.000917852127478
4.935,-0.0757020757021,0.00169714347826
4.94,0.023199023199,-0.00189242475213
4.945,0.0830280830281,-0.000830227063562
4.95,-0.0537240537241,0.00609766976218
4.955,-0.019536019536,0.00635193669992
4.96,0.118437118437,0.00648774986476
4.965,0.002442002442,0.015496235673
4.97,-0.034188034188,0.0211791121511
4.975,0.123321123321,0.0227132662787
4.98,0.0964590964591,0.0335272940638
4.985,-0.023199023199,0.0461775440882
4.99,0.100122100122,0.0508062979159
4.995,0.164835164835,0.0594791876405
5,0.002442002442,0.0727088457733
5.005,0.040293040293,0.0754868349122
5.01,0.181929181929,0.0751466651604
5.015,0.0512820512821,0.0821227272059
5.02,-0.015873015873,0.0827916993624
5.025,0.118437118437,0.0742083363907
5.03,0.04884004884,0.0687417403494
5.035,-0.0866910866911,0.0593391406634
5.04,-0.026862026862,0.0367805947535
5.045,-0.00854700854701,0.0120271129736
5.05,-0.136752136752,-0.0107026758905
5.055,-0.133089133089,-0.0390577047714
5.06,-0.0610500610501,-0.0672001006743
5.065,-0.148962148962,-0.0872848609764
5.07,-0.190476190476,-0.106403504153
5.075,-0.0964590964591,-0.125067689412
5.08,-0.119658119658,-0.134375291049
5.085,-0.197802197802,-0.138771879282
5.09,-0.125763125763,-0.144898655701
5.095,-0.0854700854701,-0.145845355052
5.1,-0.180708180708,-0.141422368949
5.105,-0.157509157509,-0.141032673723
5.11,-0.0671550671551,-0.140783392131
5.115,-0.139194139194,-0.134565852358
5.12,-0.172161172161,-0.130559571487
5.125,-0.0708180708181,-0.130069892231
5.13,-0.0854700854701,-0.124246552518
5.135,-0.157509157509,-0.116874617946
5.14,-0.0757020757021,-0.113649988138
5.145,-0.031746031746,-0.10680778998
5.15,-0.135531135531,-0.0964073418821
5.155,-0.10989010989,-0.0925410180698
5.16,-0.014652014652,-0.0906302539464
5.165,-0.0952380952381,-0.0837815504562
5.17,-0.126984126984,-0.0802742390296
5.175,-0.013431013431,-0.0804656341626
5.18,-0.03663003663,-0.0744986757117
5.185,-0.126984126984,-0.0676742425395
5.19,-0.045177045177,-0.0673200850765
5.195,0.00610500610501,-0.0644680874318
5.2,-0.105006105006,-0.0575342733819
5.205,-0.0830280830281,-0.056744341799
5.21,0.018315018315,-0.0575446550402
5.215,-0.0683760683761,-0.0526144410827
5.22,-0.105006105006,-0.0507887441561
5.225,0.00854700854701,-0.0529672029472
5.23,-0.019536019536,-0.0492214803718
5.235,-0.117216117216,-0.0451121511956
5.24,-0.037851037851,-0.0482288633134
5.245,0.015873015873,-0.0490295760316
5.25,-0.0989010989011,-0.0452202064068
5.255,-0.0744810744811,-0.0468310205623
5.26,0.039072039072,-0.0486135559091
5.265,-0.0549450549451,-0.0428854382855
5.27,-0.0964590964591,-0.0398715469109
5.275,0.02442002442,-0.0413397315692
5.28,-0.003663003663,-0.03679923093
5.285,-0.106227106227,-0.0318875678265
5.29,-0.026862026862,-0.0347968982842
5.295,0.028083028083,-0.0358900826667
5.3,-0.0927960927961,-0.0327340306683
5.305,-0.0720390720391,-0.0357309998726
5.31,0.039072039072,-0.0397365761856
5.315,-0.0610500610501,-0.0369088025603
5.32,-0.101343101343,-0.0372127655756
5.325,0.015873015873,-0.0419298688553
5.33,-0.00976800976801,-0.0401738504596
5.335,-0.111111111111,-0.037191787397
5.34,-0.028083028083,-0.0408599237514
5.345,0.032967032967,-0.0413201589692
5.35,-0.0830280830281,-0.0360059132045
5.355,-0.0549450549451,-0.0354225874064
5.36,0.0720390720391,-0.0341756411547
5.365,-0.029304029304,-0.0244960197249
5.37,-0.0720390720391,-0.0179189766787
5.375,0.0610500610501,-0.0165598504553
5.38,0.043956043956,-0.00849849459647
5.385,-0.0622710622711,0.00103359840124
5.39,0.040293040293,0.00367208079576
5.395,0.118437118437,0.0106007424154
5.4,-0.029304029304,0.0234865958796
5.405,-0.00732600732601,0.0279121607558
5.41,0.111111111111,0.0280361388822
5.415,-0.020757020757,0.031879673283
5.42,-0.0866910866911,0.0270987256072
5.425,0.015873015873,0.0115232047922
5.43,-0.017094017094,-0.00158666397182
5.435,-0.117216117216,-0.0139937707068
5.44,-0.045177045177,-0.0312009639484
5.445,0.00610500610501,-0.0432001981796
5.45,-0.111111111111,-0.0477765408691
5.455,-0.0940170940171,-0.0555182251107
5.46,0.00976800976801,-0.0624305529078
5.465,-0.0757020757021,-0.0612382040228
5.47,-0.123321123321,-0.0615746335262
5.475,-0.014652014652,-0.0659241467662
5.48,-0.032967032967,-0.0644601938123
5.485,-0.125763125763,-0.0613648049688
5.49,-0.043956043956,-0.0636709381211
5.495,0.030525030525,-0.0615051501625
5.5,-0.0793650793651,-0.051963291802
5.505,-0.045177045177,-0.0456802800293
5.51,0.115995115995,-0.0366393508154
5.515,0.045177045177,-0.0147298265999
5.52,0.00976800976801,0.00873347594627
5.525,0.218559218559,0.0317293122388
5.53,0.212454212454,0.0676005973304
5.535,0.155067155067,0.109606234084
5.54,0.0610500610501,0.136964087511
5.545,-0.0879120879121,0.13387609683
5.55,-0.236874236874,0.0914314306442
5.555,-0.199023199023,0.0185933250514
5.56,-0.0647130647131,-0.0529356843507
5.565,-0.100122100122,-0.0981172247602
5.57,-0.118437118437,-0.11991943547
5.575,0.00976800976801,-0.12360926327
5.58,-0.002442002442,-0.10728983335
5.585,-0.100122100122,-0.0838593495366
5.59,-0.015873015873,-0.0669441498236
5.595,0.0537240537241,-0.0498769576735
5.6,-0.0732600732601,-0.0314345431572
5.605,-0.0512820512821,-0.0232103939474
5.61,0.0769230769231,-0.0194451934463
5.615,-0.035409035409,-0.0109072702337
5.62,-0.0830280830281,-0.00824412715116
5.625,0.047619047619,-0.012510295347
5.63,0.025641025641,-0.0105538226083
5.635,-0.0818070818071,-0.00685556013652
5.64,0.010989010989,-0.00962967863761
5.645,0.0805860805861,-0.00825952757381
5.65,-0.0549450549451,-0.000654172226552
5.655,-0.034188034188,0.000277943868903
5.66,0.0915750915751,-0.000779419888809
5.665,-0.014652014652,0.00504034838731
5.67,-0.0659340659341,0.00680351926611
5.675,0.0744810744811,0.00309194164904
5.68,0.0573870573871,0.00717359846515
5.685,-0.0561660561661,0.0139969246851
5.69,0.045177045177,0.0143192906873
5.695,0.124542124542,0.0191580437643
5.7,-0.018315018315,0.0307325203972
5.705,0.00854700854701,0.0352038353974
5.71,0.157509157509,0.0381166716565
5.715,0.04884004884,0.0496954080988
5.72,-0.00610500610501,0.0577105227306
5.725,0.159951159951,0.0600719373919
5.73,0.136752136752,0.070933061197
5.735,-0.003663003663,0.0830127143427
5.74,0.106227106227,0.0845066395738
5.745,0.181929181929,0.0876722317329
5.75,0.01221001221,0.0953003562611
5.755,0.025641025641,0.092168580023
5.76,0.162393162393,0.0840412159098
5.765,0.023199023199,0.0817722457475
5.77,-0.0525030525031,0.0727769885209
5.775,0.0549450549451,0.0536844827074
5.78,-0.003663003663,0.0368666943961
5.785,-0.126984126984,0.0181313379683
5.79,-0.0793650793651,-0.0099749130954
5.795,-0.0525030525031,-0.0375598437549
5.8,-0.167277167277,-0.0604178092659
5.805,-0.166056166056,-0.0860270317096
5.81,-0.0830280830281,-0.109615605335
5.815,-0.156288156288,-0.123520487529
5.82,-0.199023199023,-0.134997430523
5.825,-0.106227106227,-0.146204132337
5.83,-0.119658119658,-0.149239324242
5.835,-0.206349206349,-0.148653150862
5.84,-0.137973137973,-0.151857828365
5.845,-0.0903540903541,-0.151829383594
5.85,-0.179487179487,-0.146780152371
5.855,-0.15873015873,-0.145262786273
5.86,-0.0671550671551,-0.143734658474
5.865,-0.13431013431,-0.136174596586
5.87,-0.175824175824,-0.130929554897
5.875,-0.0683760683761,-0.129762365904
5.88,-0.0744810744811,-0.123099295721
5.885,-0.159951159951,-0.11451218576
5.89,-0.0903540903541,-0.111520139749
5.895,-0.031746031746,-0.10664984578
5.9,-0.130647130647,-0.0976989651886
5.905,-0.113553113553,-0.0940255818381
5.91,-0.00854700854701,-0.091766784827
5.915,-0.0842490842491,-0.0836359618462
5.92,-0.125763125763,-0.0781731057438
5.925,-0.017094017094,-0.0773398404411
5.93,-0.032967032967,-0.0715583894116
5.935,-0.126984126984,-0.0651987729221
5.94,-0.0512820512821,-0.065642663463
5.945,0.00854700854701,-0.0639433014136
5.95,-0.103785103785,-0.0576732049534
5.955,-0.0842490842491,-0.0570150801881
5.96,0.025641025641,-0.0575486241026
5.965,-0.0622710622711,-0.0515852455387
5.97,-0.107448107448,-0.0486527623827
5.975,0.01221001221,-0.0504557289692
5.98,-0.00610500610501,-0.0461438652145
5.985,-0.111111111111,-0.0406341950112
5.99,-0.034188034188,-0.0425366593491
5.995,0.031746031746,-0.0424387089768
6,-0.0927960927961,-0.0374884425981
6.005,-0.0769230769231,-0.0387820038397
6.01,0.039072039072,-0.0418374459204
6.015,-0.0512820512821,-0.0379294090786
6.02,-0.103785103785,-0.0367251779394
6.025,0.00976800976801,-0.0408468330498
6.03,0,-0.0392231234783
6.035,-0.105006105006,-0.0355803347234
6.04,-0.030525030525,-0.0383196431732
6.045,0.035409035409,-0.0386228393848
6.05,-0.0866910866911,-0.0337854157548
6.055,-0.0744810744811,-0.0349728788468
6.06,0.040293040293,-0.0381157578936
6.065,-0.046398046398,-0.0344868604303
6.07,-0.0976800976801,-0.0332665795315
6.075,0.028083028083,-0.036385064069
6.08,0.01221001221,-0.0325565863074
6.085,-0.0952380952381,-0.0266375626428
6.09,-0.00854700854701,-0.0274291882622
6.095,0.0732600732601,-0.0245595514651
6.1,-0.047619047619,-0.0144481264865
6.105,-0.015873015873,-0.00855526808674
6.11,0.13431013431,-0.00154369407583
6.115,0.020757020757,0.0148067824003
6.12,-0.042735042735,0.0262555341428
6.125,0.0976800976801,0.0285621385714
6.13,0.0671550671551,0.034564920763
6.135,-0.0683760683761,0.0386868103817
6.14,-0.003663003663,0.0301956178151
6.145,0.045177045177,0.0190394576746
6.15,-0.0903540903541,0.00987044266341
6.155,-0.0854700854701,-0.00665554094206
6.16,0.015873015873,-0.0248768178444
6.165,-0.0695970695971,-0.0349368407077
6.17,-0.119658119658,-0.0446467557234
6.175,-0.015873015873,-0.0561666480116
6.18,-0.029304029304,-0.0598043912782
6.185,-0.126984126984,-0.0598518933642
6.19,-0.0537240537241,-0.0643772009976
6.195,0.01221001221,-0.0649749690622
6.2,-0.102564102564,-0.059362623618
6.205,-0.0903540903541,-0.0587162451415
6.21,0.02442002442,-0.0595049246715
6.215,-0.0537240537241,-0.0533060342428
6.22,-0.0976800976801,-0.0487573244136
6.225,0.039072039072,-0.0472114020037
6.23,0.0549450549451,-0.0361058276157
6.235,-0.035409035409,-0.0187430528929
6.24,0.0769230769231,-0.00392887525123
6.245,0.211233211233,0.0192901893839
6.25,0.0940170940171,0.0545249602402
6.255,0.0891330891331,0.0843233076964
6.26,0.123321123321,0.10166849874
6.265,-0.130647130647,0.100901405463
6.27,-0.233211233211,0.0647816809792
6.275,-0.123321123321,0.00183065358541
6.28,-0.0866910866911,-0.0556029592491
6.285,-0.144078144078,-0.093923296214
6.29,-0.0500610500611,-0.115040094582
6.295,0.031746031746,-0.113998462609
6.3,-0.0830280830281,-0.0956609954347
6.305,-0.0671550671551,-0.0782843010437
6.31,0.0598290598291,-0.0625588278508
6.315,-0.026862026862,-0.0420981751156
6.32,-0.0830280830281,-0.0278157171482
6.325,0.03663003663,-0.0228685272034
6.33,0.021978021978,-0.0156523032974
6.335,-0.0854700854701,-0.00944030818855
6.34,-0.00732600732601,-0.0118530335556
6.345,0.0695970695971,-0.0122606088905
6.35,-0.0561660561661,-0.00670637032195
6.355,-0.041514041514,-0.00662378211276
6.36,0.0964590964591,-0.0073323407326
6.365,-0.00610500610501,0.000375109248874
6.37,-0.0708180708181,0.00471610645853
6.375,0.0622710622711,0.00203792298099
6.38,0.0512820512821,0.00518882818938
6.385,-0.0708180708181,0.0101181799233
6.39,0.004884004884,0.0067325268647
6.395,0.0830280830281,0.00483897263216
6.4,-0.047619047619,0.00870380303252
6.405,-0.026862026862,0.00719602186853
6.41,0.115995115995,0.00580253865443
6.415,0.01221001221,0.0140726839276
6.42,-0.0500610500611,0.0197114465115
6.425,0.0940170940171,0.0191289956888
6.43,0.0842490842491,0.0255642306494
6.435,-0.040293040293,0.0342633734128
6.44,0.0610500610501,0.0352045239261
6.445,0.153846153846,0.0400423091732
6.45,0.00610500610501,0.0523250805419
6.455,0.028083028083,0.0576664876503
6.46,0.18315018315,0.0609741453707
6.465,0.0683760683761,0.0726974310387
6.47,-0.01221001221,0.0792428330293
6.475,0.135531135531,0.0761195501058
6.48,0.108669108669,0.0774917762516
6.485,-0.037851037851,0.0783996752829
6.49,0.032967032967,0.0674209752002
6.495,0.0830280830281,0.0547062675994
6.5,-0.0757020757021,0.044047249623
6.505,-0.0903540903541,0.0233545898672
6.51,-0.00732600732601,-0.00329849981584
6.515,-0.0964590964591,-0.0250921053216
6.52,-0.163614163614,-0.0479657330868
6.525,-0.0793650793651,-0.0735709988207
6.53,-0.0989010989011,-0.092020941222
6.535,-0.192918192918,-0.105800371148
6.54,-0.13431013431,-0.121611998523
6.545,-0.0805860805861,-0.131956809852
6.55,-0.175824175824,-0.134437109767
6.555,-0.167277167277,-0.138506197511
6.56,-0.0708180708181,-0.14176090835
6.565,-0.129426129426,-0.137424258514
6.57,-0.177045177045,-0.133308625743
6.575,-0.0805860805861,-0.13270850647
6.58,-0.0866910866911,-0.127526821607
6.585,-0.174603174603,-0.121217009523
6.59,-0.107448107448,-0.120811439426
6.595,-0.045177045177,-0.118371384691
6.6,-0.137973137973,-0.110818516082
6.605,-0.124542124542,-0.107214241605
6.61,-0.021978021978,-0.104527211148
6.615,-0.0903540903541,-0.0958589033924
6.62,-0.139194139194,-0.0896787039926
6.625,-0.028083028083,-0.088397316073
6.63,-0.030525030525,-0.0818758963872
6.635,-0.126984126984,-0.0735301284311
6.64,-0.0561660561661,-0.0715724975751
6.645,0.014652014652,-0.06776680314
6.65,-0.0976800976801,-0.0591356496835
6.655,-0.0891330891331,-0.0564268704978
6.66,0.023199023199,-0.0563420530995
6.665,-0.0561660561661,-0.0504661830139
6.67,-0.10989010989,-0.047445273162
6.675,0.001221001221,-0.0498781809259
6.68,-0.002442002442,-0.0469402620526
6.685,-0.107448107448,-0.0419593578701
6.69,-0.037851037851,-0.0435393852845
6.695,0.037851037851,-0.0429851722965
6.7,-0.0854700854701,-0.0369774222023
6.705,-0.0781440781441,-0.0369439653921
6.71,0.042735042735,-0.0392916429527
6.715,-0.040293040293,-0.03471671096
6.72,-0.0976800976801,-0.032312821186
6.725,0.018315018315,-0.0351941677197
6.73,0.00854700854701,-0.0325390281116
6.735,-0.101343101343,-0.0282705192211
6.74,-0.029304029304,-0.0312623728859
6.745,0.042735042735,-0.032372435456
6.75,-0.0854700854701,-0.0282966303496
6.755,-0.0769230769231,-0.0305335350796
6.76,0.045177045177,-0.0349553950919
6.765,-0.03663003663,-0.0317501112303
6.77,-0.0964590964591,-0.0300603066542
6.775,0.020757020757,-0.0333142103382
6.78,0.014652014652,-0.0306259323164
6.785,-0.0891330891331,-0.0254549500679
6.79,-0.010989010989,-0.02626942594
6.795,0.0695970695971,-0.0237376888537
6.8,-0.0586080586081,-0.0149016618749
6.805,-0.046398046398,-0.012143411587
6.81,0.0854700854701,-0.0115877377827
6.815,-0.00610500610501,-0.00371247999319
6.82,-0.0622710622711,0.00135266460841
6.825,0.0842490842491,0.00145373578877
6.83,0.0854700854701,0.0100785269345
6.835,-0.042735042735,0.0222614380066
6.84,0.040293040293,0.0260040923076
6.845,0.117216117216,0.0301998402415
6.85,-0.045177045177,0.037280141703
6.855,-0.0549450549451,0.032587599435
6.86,0.047619047619,0.0193096761446
6.865,-0.0525030525031,0.00865300048502
6.87,-0.117216117216,-0.00623955613166
6.875,-0.013431013431,-0.0262689685688
6.88,-0.021978021978,-0.0389328094618
6.885,-0.1221001221,-0.0462569457815
6.89,-0.0573870573871,-0.0562500320487
6.895,0.00732600732601,-0.061374566274
6.9,-0.106227106227,-0.0594414899118
6.905,-0.100122100122,-0.0616039537771
6.91,0.01221001221,-0.0648746781439
6.915,-0.0561660561661,-0.0605954317219
6.92,-0.10989010989,-0.0569975818191
6.925,0.003663003663,-0.0572714285824
6.93,0.001221001221,-0.0515131128305
6.935,-0.0989010989011,-0.0434563827606
6.94,-0.019536019536,-0.0414449759663
6.945,0.0830280830281,-0.0353427301754
6.95,-0.02442002442,-0.0201871770171
6.955,-0.002442002442,-0.00754390543825
6.96,0.173382173382,0.00671285048207
6.965,0.151404151404,0.0353545505404
6.97,0.0903540903541,0.0690527344303
6.975,0.190476190476,0.0969917556248
6.98,0.004884004884,0.11480241505
6.985,-0.199023199023,0.102434073131
6.99,-0.152625152625,0.0522711346171
6.995,-0.0671550671551,-0.0084060887163
7,-0.131868131868,-0.0560168940204
7.005,-0.106227106227,-0.0892608908502
7.01,0.019536019536,-0.104122610757
7.015,-0.0500610500611,-0.0976257225039
7.02,-0.107448107448,-0.0850902272671
7.025,0.00610500610501,-0.0751649763893
7.03,0.00732600732601,-0.0604691763307
7.035,-0.100122100122,-0.0457446478596
7.04,-0.029304029304,-0.0403133239789
7.045,0.0500610500611,-0.0352163291108
7.05,-0.0695970695971,-0.0261548667749
7.055,-0.0659340659341,-0.0240255714684
7.06,0.0634920634921,-0.0249099358425
7.065,-0.021978021978,-0.0189458525682
7.07,-0.0854700854701,-0.0155582754264
7.075,0.030525030525,-0.0185127876307
7.08,0.026862026862,-0.0164370858938
7.085,-0.0866910866911,-0.0124957947783
7.09,-0.00732600732601,-0.0153488057725
7.095,0.0805860805861,-0.0148772379849
7.1,-0.0549450549451,-0.00733757406131
7.105,-0.0500610500611,-0.00593674715576
7.11,0.0805860805861,-0.00758825814957
7.115,-0.00732600732601,-0.00221245750543
7.12,-0.0720390720391,0.000558050709933
7.125,0.0561660561661,-0.00257585994733
7.13,0.0561660561661,0.000807992634262
7.135,-0.0647130647131,0.00711090998571
7.14,0.00854700854701,0.0059132752065
7.145,0.106227106227,0.00693679896094
7.15,-0.026862026862,0.0151161432037
7.155,-0.017094017094,0.0179829877019
7.16,0.135531135531,0.0195105325771
7.165,0.043956043956,0.0304053584799
7.17,-0.025641025641,0.0392779231041
7.175,0.125763125763,0.041857431169
7.18,0.119658119658,0.0513427671093
7.185,-0.026862026862,0.0621362092252
7.19,0.0525030525031,0.0614424526206
7.195,0.139194139194,0.0597896540047
7.2,-0.019536019536,0.0623073510808
7.205,-0.026862026862,0.0554278029573
7.21,0.0976800976801,0.0429429589913
7.215,-0.015873015873,0.0359194889424
7.22,-0.105006105006,0.02403467383
7.225,-0.021978021978,0.00232014675798
7.23,-0.04884004884,-0.0179124254285
7.235,-0.163614163614,-0.0376255830712
7.24,-0.118437118437,-0.0631902410332
7.245,-0.0683760683761,-0.0857324967713
7.25,-0.17094017094,-0.100657194054
7.255,-0.169719169719,-0.116178670468
7.26,-0.0805860805861,-0.129636458328
7.265,-0.142857142857,-0.134188580158
7.27,-0.197802197802,-0.137688993135
7.275,-0.105006105006,-0.143687495527
7.28,-0.101343101343,-0.143611733428
7.285,-0.189255189255,-0.139999284021
7.29,-0.128205128205,-0.14043979951
7.295,-0.0634920634921,-0.138229839717
7.3,-0.152625152625,-0.130449001562
7.305,-0.14652014652,-0.126320888428
7.31,-0.043956043956,-0.123568112632
7.315,-0.0989010989011,-0.114789852305
7.32,-0.14652014652,-0.107202727225
7.325,-0.045177045177,-0.103854527512
7.33,-0.046398046398,-0.096111716793
7.335,-0.141636141636,-0.0874673608893
7.34,-0.0769230769231,-0.0858327395097
7.345,-0.002442002442,-0.0829341216538
7.35,-0.105006105006,-0.0748229729361
7.355,-0.100122100122,-0.0714466450116
7.36,0.010989010989,-0.0701770794603
7.365,-0.0647130647131,-0.0631933684636
7.37,-0.118437118437,-0.0590252334804
7.375,-0.01221001221,-0.060559567709
7.38,-0.014652014652,-0.0574054653711
7.385,-0.117216117216,-0.0525838772424
7.39,-0.0537240537241,-0.0544784978222
7.395,0.02442002442,-0.0545951561047
7.4,-0.0891330891331,-0.0489154163036
7.405,-0.0866910866911,-0.0481922419247
7.41,0.032967032967,-0.0495332695443
7.415,-0.043956043956,-0.0440378976817
7.42,-0.108669108669,-0.0407568324452
7.425,0,-0.0436763950477
7.43,0.001221001221,-0.0420095632411
7.435,-0.105006105006,-0.0381693544127
7.44,-0.037851037851,-0.0406154596122
7.445,0.040293040293,-0.0408014301723
7.45,-0.0781440781441,-0.034997401376
7.455,-0.0744810744811,-0.0344719461351
7.46,0.04884004884,-0.0360762488857
7.465,-0.031746031746,-0.030602504022
7.47,-0.0964590964591,-0.0273892104663
7.475,0.01221001221,-0.0305557145098
7.48,0.00854700854701,-0.0294036825567
7.485,-0.102564102564,-0.0267909388875
7.49,-0.034188034188,-0.0312081028986
7.495,0.0537240537241,-0.0330291648282
7.5,-0.0683760683761,-0.0276046978425
7.505,-0.0622710622711,-0.026545972183
7.51,0.0683760683761,-0.0268721764489
7.515,-0.00732600732601,-0.0189759757281
7.52,-0.0769230769231,-0.0126611565058
7.525,0.047619047619,-0.0124575330331
7.53,0.0647130647131,-0.00622839962923
7.535,-0.0537240537241,0.0036734992573
7.54,0.025641025641,0.00707693592496
7.545,0.118437118437,0.0127959642315
7.55,-0.026862026862,0.0241185572094
7.555,-0.031746031746,0.0267574456017
7.56,0.0903540903541,0.0231178064655
7.565,-0.01221001221,0.023370545617
7.57,-0.0976800976801,0.0177178426299
7.575,-0.004884004884,0.00186745440575
7.58,-0.014652014652,-0.0119052553042
7.585,-0.119658119658,-0.023579199275
7.59,-0.0610500610501,-0.0395019465228
7.595,0.010989010989,-0.0506895650354
7.6,-0.0989010989011,-0.0532031182908
7.605,-0.0964590964591,-0.0576897525562
7.61,0.018315018315,-0.0618682502179
7.615,-0.0525030525031,-0.0576889937763
7.62,-0.117216117216,-0.0543950021165
7.625,-0.013431013431,-0.0565940575429
7.63,-0.00610500610501,-0.054160655825
7.635,-0.111111111111,-0.0492783869675
7.64,-0.043956043956,-0.050344942248
7.645,0.0500610500611,-0.0484513679132
7.65,-0.0586080586081,-0.0386921431938
7.655,-0.042735042735,-0.0318221126829
7.66,0.137973137973,-0.022852936923
7.665,0.0659340659341,-0.000424686135673
7.67,0.003663003663,0.0233014132251
7.675,0.241758241758,0.0452028170629
7.68,0.267399267399,0.0824431236095
7.685,0.018315018315,0.122214230968
7.69,-0.0647130647131,0.130262386781
7.695,-0.103785103785,0.100270064052
7.7,-0.191697191697,0.0456126627686
7.705,-0.159951159951,-0.0195385963064
7.71,-0.021978021978,-0.0725902733385
7.715,-0.0573870573871,-0.097340831964
7.72,-0.108669108669,-0.102873151914
7.725,0.00732600732601,-0.0989467291104
7.73,0.014652014652,-0.0824185567609
7.735,-0.0989010989011,-0.0619540094641
7.74,-0.037851037851,-0.0506522788499
7.745,0.043956043956,-0.0417742133933
7.75,-0.0757020757021,-0.0308822598997
7.755,-0.0708180708181,-0.0280505867325
7.76,0.0549450549451,-0.0289733279829
7.765,-0.025641025641,-0.0234611792381
7.77,-0.0915750915751,-0.0204765541633
7.775,0.020757020757,-0.0239045536003
7.78,0.030525030525,-0.0220806769162
7.785,-0.0854700854701,-0.0172781673335
7.79,-0.021978021978,-0.0192194315964
7.795,0.0647130647131,-0.0196129913517
7.8,-0.0610500610501,-0.0140469928195
7.805,-0.0634920634921,-0.0142938859396
7.81,0.0659340659341,-0.0174103987964
7.815,-0.004884004884,-0.0128014423628
7.82,-0.0720390720391,-0.0089047375924
7.825,0.0500610500611,-0.00990761005359
7.83,0.0610500610501,-0.00446074134968
7.835,-0.0634920634921,0.00405432529676
7.84,0.010989010989,0.00495929154466
7.845,0.118437118437,0.00803784095644
7.85,-0.017094017094,0.0187145093601
7.855,-0.020757020757,0.023441092673
7.86,0.129426129426,0.024707130022
7.865,0.04884004884,0.0340074868236
7.87,-0.029304029304,0.0414311813445
7.875,0.123321123321,0.0426754746836
7.88,0.137973137973,0.0518038002899
7.885,-0.004884004884,0.0649276285764
7.89,0.0830280830281,0.0691457425755
7.895,0.185592185592,0.0744578560279
7.9,0.02442002442,0.0854110968947
7.905,0.00854700854701,0.0862464338661
7.91,0.150183150183,0.0795857860466
7.915,0.037851037851,0.0776211192337
7.92,-0.0622710622711,0.0698794798256
7.925,0.025641025641,0.0503610321595
7.93,0.001221001221,0.0310180241772
7.935,-0.130647130647,0.0110497598547
7.94,-0.0976800976801,-0.0173136653325
7.945,-0.0525030525031,-0.0455296684703
7.95,-0.159951159951,-0.0677342965228
7.955,-0.173382173382,-0.0913341467208
7.96,-0.0854700854701,-0.113405795262
7.965,-0.141636141636,-0.125752587998
7.97,-0.200244200244,-0.134868493541
7.975,-0.114774114774,-0.144768819665
7.98,-0.107448107448,-0.147708009193
7.985,-0.196581196581,-0.146174323241
7.99,-0.140415140415,-0.148018565926
7.995,-0.0744810744811,-0.14707193227
8,-0.161172161172,-0.140252251248
8.005,-0.161172161172,-0.136759325191
8.01,-0.0573870573871,-0.134758500016
8.015,-0.102564102564,-0.12636922577
8.02,-0.161172161172,-0.118470181957
8.025,-0.0659340659341,-0.115367812243
8.03,-0.0525030525031,-0.108494065755
8.035,-0.14652014652,-0.0997383825749
8.04,-0.0903540903541,-0.0971365193835
8.045,-0.015873015873,-0.0937604437314
8.05,-0.114774114774,-0.0857261308908
8.055,-0.117216117216,-0.082685068945
8.06,-0.001221001221,-0.0820976376973
8.065,-0.0598290598291,-0.0749395509653
8.07,-0.125763125763,-0.0689687814889
8.075,-0.023199023199,-0.0687392616329
8.08,-0.00610500610501,-0.06416585696
8.085,-0.113553113553,-0.0569481464937
8.09,-0.0549450549451,-0.0561830745243
8.095,0.031746031746,-0.0542828337768
8.1,-0.0793650793651,-0.0465985775717
8.105,-0.0866910866911,-0.0440778835721
8.11,0.030525030525,-0.0449561181866
8.115,-0.037851037851,-0.0400214210364
8.12,-0.107448107448,-0.0372503088273
8.125,0,-0.0406734326766
8.13,0.014652014652,-0.0391324628763
8.135,-0.101343101343,-0.0344768831543
8.14,-0.043956043956,-0.0365274165436
8.145,0.043956043956,-0.0374985031686
8.15,-0.0744810744811,-0.0324647760134
8.155,-0.0818070818071,-0.0326165218739
8.16,0.043956043956,-0.0356285074994
8.165,-0.031746031746,-0.0317182765813
8.17,-0.105006105006,-0.0296876447751
8.175,-0.001221001221,-0.0344198473399
8.18,0.010989010989,-0.034845636076
8.185,-0.102564102564,-0.0323989843455
8.19,-0.042735042735,-0.0361446323653
8.195,0.0525030525031,-0.0375694153116
8.2,-0.0671550671551,-0.031562869619
8.205,-0.0720390720391,-0.0298817690469
8.21,0.0671550671551,-0.0301875682187
8.215,-0.00610500610501,-0.0221764949151
8.22,-0.0805860805861,-0.0153272510533
8.225,0.0549450549451,-0.0143124970322
8.23,0.0891330891331,-0.00570866575647
8.235,-0.045177045177,0.0082505638567
8.24,0.021978021978,0.0145509890603
8.245,0.128205128205,0.0208225684998
8.25,-0.017094017094,0.0321186527285
8.255,-0.031746031746,0.0346201161811
8.26,0.0915750915751,0.0299689560057
8.265,-0.01221001221,0.0285726472064
8.27,-0.105006105006,0.02086735804
8.275,-0.014652014652,0.00229977179487
8.28,-0.00610500610501,-0.0137339682739
8.285,-0.119658119658,-0.0258445054247
8.29,-0.0683760683761,-0.0415076369344
8.295,0.015873015873,-0.052648084691
8.3,-0.0940170940171,-0.0544390767067
8.305,-0.103785103785,-0.058004316636
8.31,0.013431013431,-0.0623475394966
8.315,-0.0500610500611,-0.0588367788512
8.32,-0.117216117216,-0.0556597640288
8.325,-0.010989010989,-0.0574576591636
8.33,0.001221001221,-0.0541043340422
8.335,-0.112332112332,-0.048047777672
8.34,-0.0500610500611,-0.0488202118684
8.345,0.047619047619,-0.0477955902525
8.35,-0.0610500610501,-0.0392043327883
8.355,-0.040293040293,-0.0330395178969
8.36,0.152625152625,-0.0234039536095
8.365,0.0915750915751,0.0021010811555
8.37,0.043956043956,0.0317747555819
8.375,0.238095238095,0.0597691542895
8.38,0.203907203907,0.0959100100626
8.385,-0.0964590964591,0.121333662791
8.39,-0.168498168498,0.104181782959
8.395,-0.124542124542,0.0507804720795
8.4,-0.178266178266,-0.0123408943488
8.405,-0.144078144078,-0.0699469411871
8.41,-0.003663003663,-0.107057076042
8.415,-0.042735042735,-0.114509341992
8.42,-0.105006105006,-0.106000359254
8.425,0.00976800976801,-0.0934646573869
8.43,0.032967032967,-0.0724747339248
8.435,-0.0891330891331,-0.0493976692326
8.44,-0.032967032967,-0.0371566124698
8.445,0.0720390720391,-0.0281101400802
8.45,-0.0537240537241,-0.0158265202051
8.455,-0.0659340659341,-0.0115400019362
8.46,0.0671550671551,-0.0127661131628
8.465,-0.003663003663,-0.00802810415031
8.47,-0.0818070818071,-0.00523037545081
8.475,0.03663003663,-0.00891625923436
8.48,0.0573870573871,-0.00683065009113
8.485,-0.0708180708181,-0.000826900078656
8.49,-0.00976800976801,-0.00205877476477
8.495,0.0952380952381,-0.00205941790338
8.5,-0.040293040293,0.00479788789831
8.505,-0.046398046398,0.00582055229223
8.51,0.102564102564,0.00384128622299
8.515,0.023199023199,0.0105517581419
8.52,-0.0598290598291,0.0160168339036
8.525,0.0695970695971,0.0145098896864
8.53,0.0927960927961,0.0190333917642
8.535,-0.047619047619,0.0273215145291
8.54,0.018315018315,0.0270884027508
8.545,0.142857142857,0.0280585227485
8.55,0.001221001221,0.0374398254318
8.555,-0.014652014652,0.0411719859987
8.56,0.153846153846,0.0412118362256
8.565,0.0805860805861,0.0508627878892
8.57,-0.014652014652,0.0600801144829
8.575,0.133089133089,0.062032267681
8.58,0.157509157509,0.0704152598673
8.585,-0.001221001221,0.0821602638048
8.59,0.0732600732601,0.0833089428581
8.595,0.180708180708,0.0835404160594
8.6,0.013431013431,0.0889107817632
8.605,-0.015873015873,0.0839888718909
8.61,0.119658119658,0.0707451242154
8.615,0.02442002442,0.0626116650611
8.62,-0.0818070818071,0.0510571906072
8.625,-0.002442002442,0.0294191873707
8.63,-0.017094017094,0.00856091820381
8.635,-0.147741147741,-0.0117825311461
8.64,-0.115995115995,-0.0393842632295
8.645,-0.0598290598291,-0.0659693798949
8.65,-0.163614163614,-0.0852900447341
8.655,-0.180708180708,-0.105245899084
8.66,-0.0866910866911,-0.123859520835
8.665,-0.13431013431,-0.132689270854
8.67,-0.200244200244,-0.138175848174
8.675,-0.111111111111,-0.145173986468
8.68,-0.0952380952381,-0.14570984842
8.685,-0.189255189255,-0.141729408971
8.69,-0.140415140415,-0.14195132226
8.695,-0.0647130647131,-0.140537800877
8.7,-0.157509157509,-0.133624011035
8.705,-0.169719169719,-0.130913602865
8.71,-0.0598290598291,-0.131108575212
8.715,-0.101343101343,-0.125036001359
8.72,-0.168498168498,-0.118860317248
8.725,-0.0683760683761,-0.117265777175
8.73,-0.043956043956,-0.110952354546
8.735,-0.144078144078,-0.101230046515
8.74,-0.0927960927961,-0.0973705899303
8.745,-0.00610500610501,-0.0929948601532
8.75,-0.103785103785,-0.0833146554877
8.755,-0.114774114774,-0.0783319509983
8.76,0.001221001221,-0.0767479600896
8.765,-0.0549450549451,-0.069523644329
8.77,-0.128205128205,-0.0640690688448
8.775,-0.029304029304,-0.0652791847404
8.78,-0.00610500610501,-0.0627282127172
8.785,-0.118437118437,-0.0572773867359
8.79,-0.0647130647131,-0.0582217681821
8.795,0.02442002442,-0.0582505647477
8.8,-0.0842490842491,-0.05213472606
8.805,-0.0976800976801,-0.0506593496566
8.81,0.026862026862,-0.0522453993601
8.815,-0.039072039072,-0.0472149754133
8.82,-0.114774114774,-0.0436889739403
8.825,-0.015873015873,-0.0470172267666
8.83,0.00732600732601,-0.0463994211164
8.835,-0.105006105006,-0.04243406893
8.84,-0.0561660561661,-0.0445949410971
8.845,0.039072039072,-0.0456524445394
8.85,-0.0769230769231,-0.0402831339277
8.855,-0.0903540903541,-0.0396720407779
8.86,0.031746031746,-0.0424714192899
8.865,-0.029304029304,-0.0386020968489
8.87,-0.105006105006,-0.0356592941156
8.875,0.002442002442,-0.0385593131403
8.88,0.029304029304,-0.0361373008019
8.885,-0.0915750915751,-0.0296859849272
8.89,-0.040293040293,-0.0299912677899
8.895,0.0647130647131,-0.0295639795449
8.9,-0.0561660561661,-0.0223776467029
8.905,-0.0683760683761,-0.0200650993293
8.91,0.0793650793651,-0.0204636132283
8.915,0.021978021978,-0.0117014310435
8.92,-0.0586080586081,-0.0022475199216
8.925,0.0757020757021,0.00191552604773
8.93,0.103785103785,0.0126781411814
8.935,-0.047619047619,0.0265029734388
8.94,-0.001221001221,0.0287496373385
8.945,0.0891330891331,0.0263519473913
8.95,-0.0561660561661,0.0258864545285
8.955,-0.0915750915751,0.0155860275052
8.96,0.019536019536,-0.00249475230156
8.965,-0.045177045177,-0.0154329103259
8.97,-0.125763125763,-0.0280169077658
8.975,-0.031746031746,-0.0441879493404
8.98,-0.013431013431,-0.0533374663292
8.985,-0.124542124542,-0.056444144988
8.99,-0.0744810744811,-0.0631028153904
8.995,0.017094017094,-0.0665621118168
9,-0.0940170940171,-0.0621768839897
9.005,-0.108669108669,-0.0614457284037
9.01,0.00976800976801,-0.0636604941211
9.015,-0.047619047619,-0.0593112722481
9.02,-0.120879120879,-0.055746988965
9.025,-0.00976800976801,-0.0575073063178
9.03,0.028083028083,-0.0529434720123
9.035,-0.0830280830281,-0.0426192209606
9.04,-0.001221001221,-0.0360984985682
9.045,0.159951159951,-0.0227944261452
9.05,0.03663003663,0.00434602442514
9.055,0.0598290598291,0.0304105471886
9.06,0.253968253968,0.0565436925886
9.065,0.124542124542,0.0908998449982
9.07,-0.113553113553,0.10899143529
9.075,-0.136752136752,0.0867371261057
9.08,-0.140415140415,0.0354535665283
9.085,-0.203907203907,-0.0249808995201
9.09,-0.118437118437,-0.0808481885505
9.095,0.003663003663,-0.113570775653
9.1,-0.0793650793651,-0.117494256163
9.105,-0.0891330891331,-0.109008382136
9.11,0.045177045177,-0.0945208086848
9.115,-0.01221001221,-0.070460924694
9.12,-0.0952380952381,-0.0490619677756
9.125,0.014652014652,-0.0381587868976
9.13,0.04884004884,-0.0265437125096
9.135,-0.0805860805861,-0.0144687379663
9.14,-0.034188034188,-0.0126194802981
9.145,0.0744810744811,-0.0128173014642
9.15,-0.0525030525031,-0.00767677515561
9.155,-0.0683760683761,-0.00829451344381
9.16,0.0744810744811,-0.0123624980309
9.165,0.00610500610501,-0.00808274932707
9.17,-0.0805860805861,-0.00420479443955
9.175,0.035409035409,-0.00704171448568
9.18,0.0695970695971,-0.00437753621672
9.185,-0.0647130647131,0.00280994259718
9.19,-0.01221001221,0.0025030295552
9.195,0.0976800976801,0.00228449781587
9.2,-0.031746031746,0.00874001557643
9.205,-0.046398046398,0.0097388776664
9.21,0.107448107448,0.00764446454351
9.215,0.045177045177,0.0150610175077
9.22,-0.047619047619,0.0228576208595
9.225,0.0879120879121,0.0242203694166
9.23,0.126984126984,0.0321936088958
9.235,-0.025641025641,0.0447630384158
9.24,0.045177045177,0.0482612108331
9.245,0.181929181929,0.052454199638
9.25,0.042735042735,0.0656781208889
9.255,0.015873015873,0.0731302677957
9.26,0.184371184371,0.0752421218509
9.265,0.108669108669,0.0851526414412
9.27,-0.00976800976801,0.0923947397674
9.275,0.13431013431,0.0892149875127
9.28,0.172161172161,0.0910719801508
9.285,-0.00854700854701,0.0968659034693
9.29,0.03663003663,0.0906843680144
9.295,0.140415140415,0.0803734137228
9.3,-0.02442002442,0.0739897553669
9.305,-0.0732600732601,0.0580419758634
9.31,0.019536019536,0.0325037926239
9.315,-0.0622710622711,0.00949613552783
9.32,-0.159951159951,-0.0157945632713
9.325,-0.0903540903541,-0.047116855607
9.33,-0.0805860805861,-0.0732600108487
9.335,-0.189255189255,-0.0929331114214
9.34,-0.159951159951,-0.114017677659
9.345,-0.0891330891331,-0.130948185063
9.35,-0.174603174603,-0.138768647162
9.355,-0.190476190476,-0.146016653194
9.36,-0.0940170940171,-0.152603222781
9.365,-0.13431013431,-0.151340466024
9.37,-0.201465201465,-0.148816060936
9.375,-0.115995115995,-0.150248853212
9.38,-0.0879120879121,-0.147280139856
9.385,-0.179487179487,-0.140385114102
9.39,-0.139194139194,-0.138126136465
9.395,-0.0622710622711,-0.135522409582
9.4,-0.142857142857,-0.127991179491
9.405,-0.152625152625,-0.123763437863
9.41,-0.037851037851,-0.121264601807
9.415,-0.0744810744811,-0.111628117907
9.42,-0.147741147741,-0.101723946579
9.425,-0.0573870573871,-0.0977965633727
9.43,-0.023199023199,-0.0909994163076
9.435,-0.125763125763,-0.0814541014443
9.44,-0.0793650793651,-0.0780639269743
9.445,0.021978021978,-0.0741019813013
9.45,-0.0818070818071,-0.0638870069132
9.455,-0.100122100122,-0.0582270098324
9.46,0.018315018315,-0.0568655155527
9.465,-0.035409035409,-0.0502651670886
9.47,-0.117216117216,-0.0455731951318
9.475,-0.018315018315,-0.0481493002895
9.48,0.00976800976801,-0.0471779887915
9.485,-0.108669108669,-0.0429514381704
9.49,-0.0671550671551,-0.0456206318761
9.495,0.032967032967,-0.0482033678693
9.5,-0.0732600732601,-0.0440147023168
9.505,-0.0940170940171,-0.0434083429306
9.51,0.029304029304,-0.045802235093
9.515,-0.029304029304,-0.0415131522683
9.52,-0.118437118437,-0.0385589881384
9.525,-0.020757020757,-0.0432277535002
9.53,0.013431013431,-0.0443064511622
9.535,-0.107448107448,-0.0413363620214
9.54,-0.0634920634921,-0.0444709084584
9.545,0.03663003663,-0.0469313960052
9.55,-0.0744810744811,-0.0424667046946
9.555,-0.0964590964591,-0.0420665671293
9.56,0.025641025641,-0.0452600917431
9.565,-0.019536019536,-0.0414643181422
9.57,-0.103785103785,-0.0373536060832
9.575,0.004884004884,-0.038690662512
9.58,0.046398046398,-0.0344055157627
9.585,-0.0818070818071,-0.0252170235499
9.59,-0.039072039072,-0.0232546379743
9.595,0.0769230769231,-0.0218286344014
9.6,-0.029304029304,-0.0131564423574
9.605,-0.045177045177,-0.00770282431331
9.61,0.106227106227,-0.00421888440848
9.615,0.047619047619,0.008186608489
9.62,-0.0549450549451,0.0195363680962
9.625,0.04884004884,0.0208937304405
9.63,0.0695970695971,0.0228879188759
9.635,-0.0830280830281,0.0244893622309
9.64,-0.0537240537241,0.0138297986607
9.645,0.032967032967,-0.00123086056783
9.65,-0.0830280830281,-0.0116777150402
9.655,-0.108669108669,-0.0258134931169
9.66,0.00610500610501,-0.041577153725
9.665,-0.043956043956,-0.0481354022751
9.67,-0.125763125763,-0.0520541254971
9.675,-0.034188034188,-0.0595842854741
9.68,-0.003663003663,-0.0614177602802
9.685,-0.114774114774,-0.0581960920728
9.69,-0.0769230769231,-0.0601799284332
9.695,0.018315018315,-0.061597801508
9.7,-0.0854700854701,-0.0567303381112
9.705,-0.112332112332,-0.0560911252368
9.71,0.010989010989,-0.0592265255059
9.715,-0.02442002442,-0.0551343850618
9.72,-0.101343101343,-0.0493693026359
9.725,0.020757020757,-0.046943245705
9.73,0.0964590964591,-0.0353979655357
9.735,-0.035409035409,-0.0149642276482
9.74,0.0622710622711,0.00190218489161
9.745,0.278388278388,0.0268007111004
9.75,0.137973137973,0.0690233823204
9.755,0.00854700854701,0.103019057523
9.76,-0.026862026862,0.106643061108
9.765,-0.152625152625,0.079621872218
9.77,-0.216117216117,0.0263493020309
9.775,-0.0976800976801,-0.0361997485975
9.78,-0.025641025641,-0.0804473598032
9.785,-0.112332112332,-0.0994181248867
9.79,-0.0610500610501,-0.104766211861
9.795,0.046398046398,-0.0967386058237
9.8,-0.0598290598291,-0.076235146758
9.805,-0.0854700854701,-0.0594063441417
9.81,0.045177045177,-0.0487293482088
9.815,-0.002442002442,-0.0343737263881
9.82,-0.0903540903541,-0.0232799745859
9.825,0.013431013431,-0.0213575941205
9.83,0.0561660561661,-0.0168090485825
9.835,-0.0769230769231,-0.00921721194767
9.84,-0.032967032967,-0.00980961497306
9.845,0.0793650793651,-0.0112198284716
9.85,-0.043956043956,-0.00606911699327
9.855,-0.0732600732601,-0.00618992494951
9.86,0.0622710622711,-0.0110214638115
9.865,0.01221001221,-0.00843491049157
9.87,-0.0781440781441,-0.00521205252395
9.875,0.034188034188,-0.00773467483597
9.88,0.0769230769231,-0.00445008913619
9.885,-0.0647130647131,0.00367549848545
9.89,-0.020757020757,0.00361391323653
9.895,0.101343101343,0.0026914515899
9.9,-0.025641025641,0.00895098191078
9.905,-0.0525030525031,0.0102651418443
9.91,0.0952380952381,0.00738378119937
9.915,0.045177045177,0.0130532322448
9.92,-0.0537240537241,0.0195161757027
9.925,0.0757020757021,0.0197130618167
9.93,0.135531135531,0.0269307510078
9.935,-0.014652014652,0.0408319829514
9.94,0.042735042735,0.0470060594826
9.945,0.186813186813,0.0532536431314
9.95,0.043956043956,0.0677348090997
9.955,0,0.0750314805029
9.96,0.166056166056,0.0744629648622
9.965,0.111111111111,0.0808896150457
9.97,-0.017094017094,0.0862473893511
9.975,0.0989010989011,0.0810785044147
9.98,0.128205128205,0.0778259211022
9.985,-0.0500610500611,0.0759470075372
9.99,-0.032967032967,0.0607833376214
9.995,0.0537240537241,0.0392368032679
10,-0.0793650793651,0.0211743882838
