"Latest: Time (s)","Latest: Potential (mV)","Latest: EKG (mV)"
0,-0.03663003663,-0.00168980960049
0.005,0.028083028083,-0.00429316129959
0.01,0.001221001221,-0.00382375767969
0.015,-0.039072039072,-0.00328160081187
0.02,0.025641025641,-0.00477515023366
0.025,0.0573870573871,-0.00141791273308
0.03,-0.02442002442,0.00584592496619
0.035,-0.00610500610501,0.00845229099489
0.04,0.0695970695971,0.00969528468128
0.045,-0.00610500610501,0.0143755669854
0.05,0.013431013431,0.0172916690793
0.055,0.0769230769231,0.0200412192853
0.06,0.026862026862,0.026651322359
0.065,-0.025641025641,0.0298284786803
0.07,0.03663003663,0.0264501470046
0.075,0.0683760683761,0.0252589340922
0.08,-0.00610500610501,0.0277289175857
0.085,-0.023199023199,0.0253477745807
0.09,0.013431013431,0.0176968816566
0.095,-0.040293040293,0.00897871312133
0.1,-0.0854700854701,-0.00400667905291
0.105,-0.0610500610501,-0.0222146305591
0.11,-0.0671550671551,-0.0397438921662
0.115,-0.103785103785,-0.0548312798
0.12,-0.0915750915751,-0.0690316746779
0.125,-0.101343101343,-0.0811893621998
0.13,-0.141636141636,-0.0922957495888
0.135,-0.119658119658,-0.103989975302
0.14,-0.0805860805861,-0.111843959737
0.145,-0.130647130647,-0.114050586242
0.15,-0.145299145299,-0.116564863554
0.155,-0.115995115995,-0.121075901178
0.16,-0.128205128205,-0.124272059125
0.165,-0.157509157509,-0.127358304787
0.17,-0.120879120879,-0.131398153573
0.175,-0.0903540903541,-0.131725587838
0.18,-0.139194139194,-0.127913711213
0.185,-0.120879120879,-0.12502254526
0.19,-0.0598290598291,-0.120864615396
0.195,-0.107448107448,-0.112570075742
0.2,-0.131868131868,-0.10647536438
0.205,-0.0720390720391,-0.104277005167
0.21,-0.0647130647131,-0.0996691098272
0.215,-0.113553113553,-0.0935435904781
0.22,-0.0757020757021,-0.0902240704823
0.225,-0.041514041514,-0.0860807677299
0.23,-0.0891330891331,-0.0795931752666
0.235,-0.0695970695971,-0.0750648873093
0.24,-0.029304029304,-0.0708712999663
0.245,-0.0622710622711,-0.0645181691792
0.25,-0.0610500610501,-0.0594018137216
0.255,-0.00976800976801,-0.0548802675218
0.26,-0.02442002442,-0.0473737340637
0.265,-0.0940170940171,-0.0419810594883
0.27,-0.0537240537241,-0.0438615115257
0.275,0.00610500610501,-0.0457050164416
0.28,-0.0586080586081,-0.042796668534
0.285,-0.0708180708181,-0.0418618786864
0.29,-0.003663003663,-0.043084088765
0.295,-0.02442002442,-0.0404664668943
0.3,-0.0683760683761,-0.0372882959388
0.305,-0.013431013431,-0.0368992865119
0.31,0.003663003663,-0.0341235685856
0.315,-0.03663003663,-0.0284331542254
0.32,-0.00610500610501,-0.0238801214081
0.325,0.00732600732601,-0.0191494695603
0.33,-0.034188034188,-0.014472145652
0.335,-0.039072039072,-0.0141200887881
0.34,-0.003663003663,-0.0166924660831
0.345,-0.041514041514,-0.0189329215895
0.35,-0.045177045177,-0.022624480419
0.355,0.004884004884,-0.0261232086282
0.36,-0.01221001221,-0.0252202356949
0.365,-0.0512820512821,-0.0233892880967
0.37,0.00732600732601,-0.023129620452
0.375,-0.002442002442,-0.0205363320079
0.38,-0.0769230769231,-0.0189073551884
0.385,-0.041514041514,-0.0237422548264
0.39,0.025641025641,-0.0279349941657
0.395,-0.0598290598291,-0.0271516746449
0.4,-0.0781440781441,-0.0296983109163
0.405,0.039072039072,-0.0336380444606
0.41,-0.003663003663,-0.0295375001497
0.415,-0.0561660561661,-0.023196869567
0.42,-0.00732600732601,-0.0214870419255
0.425,0,-0.0199481491328
0.43,-0.0561660561661,-0.0184393298614
0.435,-0.0537240537241,-0.0219551862052
0.44,0.002442002442,-0.0270681604018
0.445,-0.032967032967,-0.0283618797133
0.45,-0.0537240537241,-0.0291719989361
0.455,0.010989010989,-0.0301580585455
0.46,-0.018315018315,-0.0273874388287
0.465,-0.0744810744811,-0.0255898994237
0.47,0.010989010989,-0.0271936691397
0.475,0.018315018315,-0.024541606487
0.48,-0.0586080586081,-0.0192156383667
0.485,-0.047619047619,-0.019809692367
0.49,0.026862026862,-0.0223044347778
0.495,-0.042735042735,-0.0211054141407
0.5,-0.0708180708181,-0.0225918585542
0.505,0.004884004884,-0.0274341645581
0.51,0.00732600732601,-0.0272317075213
0.515,-0.0744810744811,-0.0246418601057
0.52,-0.00854700854701,-0.0257492671617
0.525,0.03663003663,-0.0240771775172
0.53,-0.0573870573871,-0.0184739670954
0.535,-0.0537240537241,-0.0183926046283
0.54,0.0610500610501,-0.0197464474526
0.545,-0.026862026862,-0.0148534095499
0.55,-0.0622710622711,-0.0122408098339
0.555,0.018315018315,-0.0148367804041
0.56,0.028083028083,-0.0132630668554
0.565,-0.032967032967,-0.0081265810258
0.57,-0.001221001221,-0.00590328270201
0.575,0.00854700854701,-0.00495971480915
0.58,-0.0634920634921,-0.00577720672537
0.585,-0.037851037851,-0.0123230617198
0.59,0.021978021978,-0.0186758438529
0.595,-0.0549450549451,-0.0206070979835
0.6,-0.0793650793651,-0.0254711393101
0.605,-0.028083028083,-0.0343159594891
0.61,-0.042735042735,-0.0405574621377
0.615,-0.115995115995,-0.0467326277484
0.62,-0.0622710622711,-0.0566924567487
0.625,-0.031746031746,-0.0636904397823
0.63,-0.0989010989011,-0.0657436799707
0.635,-0.0720390720391,-0.0685347565988
0.64,-0.003663003663,-0.0686389662378
0.645,-0.0695970695971,-0.0628963533633
0.65,-0.0854700854701,-0.0589991240847
0.655,0.00610500610501,-0.0570102568135
0.66,-0.015873015873,-0.0496240340408
0.665,-0.0537240537241,-0.0404956689589
0.67,0.0708180708181,-0.030955734989
0.675,0.189255189255,-0.00776547738259
0.68,0.159951159951,0.0331798833104
0.685,0.145299145299,0.0773859863774
0.69,0.046398046398,0.107772352372
0.695,-0.150183150183,0.106885350731
0.7,-0.217338217338,0.0649836402237
0.705,-0.161172161172,-0.00203117234808
0.71,-0.168498168498,-0.0672847229591
0.715,-0.196581196581,-0.119011411001
0.72,-0.129426129426,-0.154371460196
0.725,-0.0757020757021,-0.167778469704
0.73,-0.0842490842491,-0.160254277423
0.735,-0.0573870573871,-0.140895278852
0.74,-0.00854700854701,-0.114950861711
0.745,-0.0561660561661,-0.0870065058369
0.75,-0.0866910866911,-0.0667836497604
0.755,0.013431013431,-0.054484277858
0.76,0.015873015873,-0.0404092360734
0.765,-0.0634920634921,-0.0268752595595
0.77,-0.013431013431,-0.0210052203125
0.775,0.047619047619,-0.0162136730462
0.78,-0.03663003663,-0.00878116913347
0.785,-0.029304029304,-0.00604012253025
0.79,0.0805860805861,-0.00425339915945
0.795,-0.01221001221,0.00293024582676
0.8,-0.0671550671551,0.00541559737644
0.805,0.021978021978,-0.000106754024839
0.81,0.01221001221,-0.00330995788019
0.815,-0.0647130647131,-0.00511946024735
0.82,0.010989010989,-0.00996516378839
0.825,0.045177045177,-0.0103968422596
0.83,-0.0634920634921,-0.00694451014907
0.835,-0.0561660561661,-0.010330109394
0.84,0.0634920634921,-0.0152710850591
0.845,0.00732600732601,-0.0112782595126
0.85,-0.03663003663,-0.0053182757573
0.855,0.039072039072,-0.00264490994098
0.86,0.021978021978,0.00208694523738
0.865,-0.037851037851,0.00611312984745
0.87,0.031746031746,0.00595133216253
0.875,0.0683760683761,0.00911075334567
0.88,-0.046398046398,0.0146161121333
0.885,-0.031746031746,0.0120356031987
0.89,0.0805860805861,0.0071937333867
0.895,-0.003663003663,0.00928668265082
0.9,-0.017094017094,0.0111934164736
0.905,0.0879120879121,0.0123750880607
0.91,0.0586080586081,0.020698911784
0.915,-0.039072039072,0.0286336279326
0.92,0.004884004884,0.0265764111652
0.925,0.0525030525031,0.0217307885704
0.93,-0.037851037851,0.018661022545
0.935,-0.0586080586081,0.00993389954492
0.94,-0.00610500610501,-0.0036264433357
0.945,-0.0769230769231,-0.0164419738289
0.95,-0.0940170940171,-0.0314268302512
0.955,-0.043956043956,-0.0472481883892
0.96,-0.0683760683761,-0.0578577818968
0.965,-0.130647130647,-0.0667627564439
0.97,-0.0976800976801,-0.0785372321674
0.975,-0.0708180708181,-0.0881420778818
0.98,-0.129426129426,-0.0936119969473
0.985,-0.130647130647,-0.100263483593
0.99,-0.103785103785,-0.107845854998
0.995,-0.137973137973,-0.113641988292
1,-0.141636141636,-0.119574182034
1.005,-0.0854700854701,-0.123802716979
1.01,-0.106227106227,-0.12235754889
1.015,-0.152625152625,-0.119853158705
1.02,-0.106227106227,-0.120387942528
1.025,-0.0622710622711,-0.118150550139
1.03,-0.129426129426,-0.111864643069
1.035,-0.103785103785,-0.107732878115
1.04,-0.013431013431,-0.101987023478
1.045,-0.100122100122,-0.090987561605
1.05,-0.123321123321,-0.0843344592377
1.055,-0.043956043956,-0.0835250154837
1.06,-0.045177045177,-0.0795429504071
1.065,-0.108669108669,-0.0741157538384
1.07,-0.0512820512821,-0.0722462545774
1.075,0.001221001221,-0.0676836540002
1.08,-0.0781440781441,-0.0588082420927
1.085,-0.108669108669,-0.055758114287
1.09,-0.032967032967,-0.0591210943512
1.095,-0.042735042735,-0.0598918022333
1.1,-0.0659340659341,-0.0577245537196
1.105,0.00732600732601,-0.0537237208025
1.11,0.001221001221,-0.0441519804457
1.115,-0.0659340659341,-0.0338882810984
1.12,-0.017094017094,-0.0294027236411
1.125,0.015873015873,-0.025657631162
1.13,-0.046398046398,-0.0205457194531
1.135,-0.040293040293,-0.019647765186
1.14,0.019536019536,-0.0205373678565
1.145,-0.035409035409,-0.0188749917787
1.15,-0.0757020757021,-0.0204324719548
1.155,-0.014652014652,-0.0267220655574
1.16,0.00976800976801,-0.0292779214602
1.165,-0.0598290598291,-0.0276670639566
1.17,0.003663003663,-0.0266699462895
1.175,0.0549450549451,-0.0211455669092
1.18,-0.045177045177,-0.0113723658415
1.185,-0.034188034188,-0.00767791327911
1.19,0.0610500610501,-0.00686621282295
1.195,-0.031746031746,-0.00260896413392
1.2,-0.0830280830281,-0.00397666133118
1.205,0.018315018315,-0.0121955763779
1.21,0.00976800976801,-0.0156771333116
1.215,-0.0903540903541,-0.0169186083982
1.22,-0.041514041514,-0.0242081331436
1.225,0.02442002442,-0.0301980437633
1.23,-0.046398046398,-0.0293740579658
1.235,-0.0537240537241,-0.0291811974206
1.24,0.015873015873,-0.0300665708425
1.245,-0.026862026862,-0.0272069874103
1.25,-0.04884004884,-0.0247793959044
1.255,0.028083028083,-0.0234628358914
1.26,-0.018315018315,-0.0189927468385
1.265,-0.0866910866911,-0.0176831287487
1.27,-0.017094017094,-0.0234079388855
1.275,0.035409035409,-0.025846958018
1.28,-0.047619047619,-0.0219953955328
1.285,-0.032967032967,-0.0203232520233
1.29,0.019536019536,-0.0200878563966
1.295,-0.043956043956,-0.0180114664709
1.3,-0.0695970695971,-0.0200316163648
1.305,0.002442002442,-0.0256651665857
1.31,-0.010989010989,-0.0271921671552
1.315,-0.0671550671551,-0.0269246860812
1.32,-0.00976800976801,-0.0289783257657
1.325,0.004884004884,-0.0284149494442
1.33,-0.0732600732601,-0.0262741619791
1.335,-0.0525030525031,-0.0293289896267
1.34,0.028083028083,-0.0323476140282
1.345,-0.028083028083,-0.0289897352679
1.35,-0.039072039072,-0.0250868787496
1.355,0.004884004884,-0.023213334346
1.36,-0.037851037851,-0.021106394765
1.365,-0.101343101343,-0.0241175771134
1.37,-0.017094017094,-0.0330331584535
1.375,0.025641025641,-0.0363918627468
1.38,-0.0598290598291,-0.0325112924997
1.385,-0.039072039072,-0.0307432040676
1.39,0.026862026862,-0.0293264347053
1.395,-0.0525030525031,-0.024964261655
1.4,-0.0769230769231,-0.0253658333645
1.405,0.003663003663,-0.0302329246159
1.41,-0.001221001221,-0.0303147877003
1.415,-0.0769230769231,-0.0282534189945
1.42,-0.021978021978,-0.0301935011746
1.425,-0.001221001221,-0.0312088335175
1.43,-0.0854700854701,-0.0310187362645
1.435,-0.0561660561661,-0.0357345898087
1.44,0.037851037851,-0.0388387354464
1.445,-0.015873015873,-0.0330296078685
1.45,-0.0757020757021,-0.0272883847453
1.455,-0.002442002442,-0.0272587826476
1.46,-0.00976800976801,-0.0263824339226
1.465,-0.0708180708181,-0.0253640090017
1.47,-0.037851037851,-0.0289134683245
1.475,0.00610500610501,-0.0318014177292
1.48,-0.0793650793651,-0.0321976406057
1.485,-0.0989010989011,-0.0380545263846
1.49,-0.028083028083,-0.0479946656337
1.495,-0.0598290598291,-0.0539405757461
1.5,-0.0989010989011,-0.0582893945503
1.505,-0.013431013431,-0.0621768086451
1.51,-0.01221001221,-0.0589803230384
1.515,-0.0903540903541,-0.0524391115434
1.52,-0.039072039072,-0.050247748291
1.525,0.00732600732601,-0.0473330945502
1.53,-0.045177045177,-0.0403760266132
1.535,-0.041514041514,-0.035249332632
1.54,0.0647130647131,-0.0291525041555
1.545,0.0634920634921,-0.0137900327449
1.55,0.103785103785,0.00994118571183
1.555,0.273504273504,0.0448999061663
1.56,0.201465201465,0.0931240150471
1.565,-0.045177045177,0.12877835951
1.57,-0.113553113553,0.122437837274
1.575,-0.151404151404,0.0771809141577
1.58,-0.194139194139,0.0125175335794
1.585,-0.152625152625,-0.0535319352656
1.59,-0.0708180708181,-0.102442476513
1.595,-0.103785103785,-0.125956452677
1.6,-0.126984126984,-0.132979080889
1.605,-0.028083028083,-0.129693964605
1.61,-0.023199023199,-0.113665499734
1.615,-0.0744810744811,-0.0916800195872
1.62,0,-0.0718919384542
1.625,0.037851037851,-0.0505837088948
1.63,-0.0586080586081,-0.0299814124389
1.635,-0.045177045177,-0.0200619172282
1.64,0.043956043956,-0.0163255393705
1.645,-0.018315018315,-0.0103488970783
1.65,-0.039072039072,-0.00696435982767
1.655,0.030525030525,-0.00705634639424
1.66,0.013431013431,-0.00416601599809
1.665,-0.0549450549451,-0.00186311886411
1.67,0.00854700854701,-0.00444227279087
1.675,0.0598290598291,-0.0038771262965
1.68,-0.045177045177,0.000946490051693
1.685,-0.03663003663,4.61661648491E-05
1.69,0.045177045177,-0.00378476225466
1.695,-0.018315018315,-0.00333698550429
1.7,-0.0634920634921,-0.00503571320015
1.705,0.021978021978,-0.0106309678247
1.71,0.046398046398,-0.0101818859974
1.715,-0.042735042735,-0.00475889484582
1.72,0.003663003663,-0.00284713846811
1.725,0.025641025641,-0.00183215466705
1.73,-0.040293040293,-0.000318966986894
1.735,0.00854700854701,-0.00165633017487
1.74,0.0720390720391,0.000244655694296
1.745,-0.002442002442,0.00806265753726
1.75,-0.0512820512821,0.0111521176537
1.755,0.0598290598291,0.00852958430004
1.76,0.03663003663,0.0105099707794
1.765,-0.04884004884,0.0134311355975
1.77,0.010989010989,0.0100799837909
1.775,0.0561660561661,0.00792366273466
1.78,-0.029304029304,0.00973820426187
1.785,-0.003663003663,0.00855201940947
1.79,0.0683760683761,0.00785506056963
1.795,-0.013431013431,0.0115828599798
1.8,-0.0525030525031,0.0107719416504
1.805,0.0537240537241,0.00540007547691
1.81,0.023199023199,0.00536659225102
1.815,-0.0964590964591,0.00452882346428
1.82,-0.0695970695971,-0.00775898201794
1.825,-0.042735042735,-0.0252130847948
1.83,-0.115995115995,-0.0416493170222
1.835,-0.103785103785,-0.0595087908364
1.84,-0.0695970695971,-0.0754485972737
1.845,-0.126984126984,-0.0864327470729
1.85,-0.147741147741,-0.0976279096899
1.855,-0.0976800976801,-0.109114118355
1.86,-0.0989010989011,-0.115019021861
1.865,-0.157509157509,-0.11759629871
1.87,-0.111111111111,-0.121384722561
1.875,-0.105006105006,-0.123210945491
1.88,-0.157509157509,-0.123453511242
1.885,-0.13431013431,-0.126364728208
1.89,-0.0744810744811,-0.127572834344
1.895,-0.126984126984,-0.123552204265
1.9,-0.155067155067,-0.121081552576
1.905,-0.0842490842491,-0.121575238273
1.91,-0.0866910866911,-0.118309967139
1.915,-0.140415140415,-0.113235256538
1.92,-0.0866910866911,-0.110798105031
1.925,-0.046398046398,-0.105770680153
1.93,-0.114774114774,-0.0973553665309
1.935,-0.0976800976801,-0.0924879562301
1.94,-0.013431013431,-0.0879542113803
1.945,-0.0708180708181,-0.0785068329613
1.95,-0.0952380952381,-0.0709208821906
1.955,-0.030525030525,-0.0675653361818
1.96,-0.0525030525031,-0.0630793094465
1.965,-0.0866910866911,-0.0594846892996
1.97,-0.035409035409,-0.0587942426159
1.975,0,-0.0548717163115
1.98,-0.0805860805861,-0.0481683089794
1.985,-0.0647130647131,-0.0464036201707
1.99,0.013431013431,-0.0460416389872
1.995,-0.039072039072,-0.0409162772612
2,-0.0769230769231,-0.0373793256794
2.005,0.020757020757,-0.0366844121128
2.01,-0.026862026862,-0.0324460492798
2.015,-0.0854700854701,-0.0298381093846
2.02,-0.0512820512821,-0.0345402548857
2.025,-0.023199023199,-0.0402237794699
2.03,-0.0659340659341,-0.0431444408907
2.035,-0.047619047619,-0.0459698144732
2.04,0.035409035409,-0.0446783658699
2.045,-0.040293040293,-0.036587419328
2.05,-0.0561660561661,-0.0305319583525
2.055,0.03663003663,-0.0272708952366
2.06,-0.00976800976801,-0.020296880402
2.065,-0.0683760683761,-0.0154873813251
2.07,-0.018315018315,-0.0178683107855
2.075,0.026862026862,-0.0193470186701
2.08,-0.0622710622711,-0.0177434076646
2.085,-0.0671550671551,-0.0212847338671
2.09,0.00976800976801,-0.0277168178706
2.095,-0.040293040293,-0.0298212315088
2.1,-0.0634920634921,-0.0315493478228
2.105,0.00854700854701,-0.0339000517624
2.11,-0.003663003663,-0.0311100812646
2.115,-0.0793650793651,-0.027602210332
2.12,-0.01221001221,-0.0288383967589
2.125,0.040293040293,-0.0270539028307
2.13,-0.0586080586081,-0.0207334698212
2.135,-0.0634920634921,-0.0202767176851
2.14,0.029304029304,-0.0235203295812
2.145,-0.026862026862,-0.0222399385006
2.15,-0.0512820512821,-0.0209986259072
2.155,0.02442002442,-0.0213574362199
2.16,0.004884004884,-0.0174802214655
2.165,-0.0671550671551,-0.0138686119746
2.17,-0.025641025641,-0.016686769288
2.175,0.01221001221,-0.019894058429
2.18,-0.0708180708181,-0.0211237396261
2.185,-0.046398046398,-0.0259416932654
2.19,0.026862026862,-0.0298328960934
2.195,-0.025641025641,-0.0270865610281
2.2,-0.0537240537241,-0.0243425994922
2.205,-0.00854700854701,-0.0250351441568
2.21,0,-0.0240230460628
2.215,-0.0769230769231,-0.0230352672761
2.22,-0.040293040293,-0.0272548228991
2.225,0.003663003663,-0.031397995928
2.23,-0.0598290598291,-0.0319227255753
2.235,-0.0598290598291,-0.0344012686853
2.24,0.046398046398,-0.0354119179907
2.245,-0.026862026862,-0.0290928703833
2.25,-0.0793650793651,-0.0246158753415
2.255,-0.010989010989,-0.0269403804914
2.26,0.001221001221,-0.0277311802731
2.265,-0.0610500610501,-0.0262135862431
2.27,-0.019536019536,-0.0271076985057
2.275,-0.010989010989,-0.0276710817153
2.28,-0.0793650793651,-0.0284184646921
2.285,-0.0610500610501,-0.0341878573132
2.29,0.045177045177,-0.0379265796307
2.295,-0.018315018315,-0.0322599002755
2.3,-0.0830280830281,-0.0269560748716
2.305,-0.00854700854701,-0.028273123285
2.31,-0.015873015873,-0.0290547670349
2.315,-0.0830280830281,-0.0297668196003
2.32,-0.002442002442,-0.0331296026316
2.325,0.043956043956,-0.03069791891
2.33,-0.0805860805861,-0.0236120778726
2.335,-0.0647130647131,-0.0241628247414
2.34,-0.003663003663,-0.0298322128647
2.345,-0.041514041514,-0.0323540421233
2.35,-0.0671550671551,-0.0347213078623
2.355,0.037851037851,-0.0358434816058
2.36,-0.015873015873,-0.0301192447061
2.365,-0.0818070818071,-0.0252384479805
2.37,-0.031746031746,-0.0279254007701
2.375,0.034188034188,-0.0292196365742
2.38,-0.047619047619,-0.0249712824939
2.385,-0.017094017094,-0.0218789360688
2.39,0.0671550671551,-0.0169967471004
2.395,0.010989010989,-0.00554493092578
2.4,-0.039072039072,0.00341980948569
2.405,0.018315018315,0.0049446511587
2.41,-0.015873015873,0.00393725947837
2.415,-0.0720390720391,-0.00122760864568
2.42,-0.030525030525,-0.0123282367189
2.425,0.046398046398,-0.0195119823948
2.43,-0.0695970695971,-0.0197825067062
2.435,-0.0622710622711,-0.0234186704446
2.44,-0.00610500610501,-0.0301232242028
2.445,-0.0671550671551,-0.034395981772
2.45,-0.0903540903541,-0.0407961822187
2.455,-0.029304029304,-0.049202099479
2.46,-0.019536019536,-0.0520302305519
2.465,-0.0744810744811,-0.0504104042692
2.47,-0.0561660561661,-0.0506758282581
2.475,-0.025641025641,-0.0512561935862
2.48,-0.0695970695971,-0.0502508751114
2.485,-0.0549450549451,-0.0506226510835
2.49,0.020757020757,-0.0487867468399
2.495,0.013431013431,-0.0388813444666
2.5,-0.00610500610501,-0.0249199628654
2.505,0.156288156288,-0.00618899208291
2.51,0.21978021978,0.028442097255
2.515,0.1221001221,0.0733460181425
2.52,0.0683760683761,0.106454546155
2.525,-0.045177045177,0.112951187837
2.53,-0.184371184371,0.0857844875933
2.535,-0.203907203907,0.0280925446898
2.54,-0.145299145299,-0.0394863976235
2.545,-0.153846153846,-0.0953458636382
2.55,-0.157509157509,-0.133387819883
2.555,-0.0818070818071,-0.152887108452
2.56,-0.0732600732601,-0.152458882568
2.565,-0.118437118437,-0.140112328063
2.57,-0.0634920634921,-0.125421662639
2.575,0.025641025641,-0.105191761937
2.58,-0.0537240537241,-0.078873364321
2.585,-0.0561660561661,-0.0577403220712
2.59,0.042735042735,-0.0423811984957
2.595,-0.017094017094,-0.0264436394554
2.6,-0.0573870573871,-0.0159788613874
2.605,0.020757020757,-0.013009376577
2.61,0.017094017094,-0.00909203667994
2.615,-0.0500610500611,-0.00526240488748
2.62,-0.023199023199,-0.00730833606609
2.625,0.030525030525,-0.010007620485
2.63,-0.025641025641,-0.00892521345657
2.635,-0.040293040293,-0.00956227704521
2.64,0.0561660561661,-0.0104204988791
2.645,0.002442002442,-0.00548377112364
2.65,-0.03663003663,-0.000917383291187
2.655,0.0549450549451,0.000765453475571
2.66,0.025641025641,0.00601433211904
2.665,-0.0549450549451,0.00985172039212
2.67,0.010989010989,0.00654146524119
2.675,0.0671550671551,0.00528351855713
2.68,-0.035409035409,0.00875932085586
2.685,-0.019536019536,0.00778221718879
2.69,0.0818070818071,0.00620359675559
2.695,0.02442002442,0.0120556036797
2.7,-0.013431013431,0.0181164961265
2.705,0.0647130647131,0.0206270070655
2.71,0.0561660561661,0.0259975681584
2.715,-0.037851037851,0.0302628936297
2.72,0.00610500610501,0.0261567087599
2.725,0.0757020757021,0.021620018799
2.73,0.003663003663,0.0228344996879
2.735,0.013431013431,0.0236680417169
2.74,0.0952380952381,0.0255122698496
2.745,0.025641025641,0.0323010493753
2.75,-0.023199023199,0.0353684574081
2.755,0.0586080586081,0.0320967400923
2.76,0.030525030525,0.0303103002743
2.765,-0.047619047619,0.0271619244304
2.77,-0.004884004884,0.0173907623329
2.775,-0.00610500610501,0.00644711310917
2.78,-0.0964590964591,-0.00536318504454
2.785,-0.101343101343,-0.0240384193615
2.79,-0.0744810744811,-0.0460234436381
2.795,-0.107448107448,-0.0648471771368
2.8,-0.157509157509,-0.0827545281797
2.805,-0.101343101343,-0.100455397781
2.81,-0.128205128205,-0.113154942614
2.815,-0.168498168498,-0.122797499757
2.82,-0.136752136752,-0.132649551967
2.825,-0.0927960927961,-0.137688680456
2.83,-0.156288156288,-0.136839856463
2.835,-0.150183150183,-0.136800496669
2.84,-0.0842490842491,-0.136490580387
2.845,-0.120879120879,-0.131429649205
2.85,-0.14652014652,-0.126486818899
2.855,-0.0989010989011,-0.124372949287
2.86,-0.0952380952381,-0.120660844421
2.865,-0.144078144078,-0.116566057313
2.87,-0.101343101343,-0.115404395471
2.875,-0.0647130647131,-0.112520019543
2.88,-0.111111111111,-0.106109999344
2.885,-0.100122100122,-0.101232945788
2.89,-0.0500610500611,-0.0968269063445
2.895,-0.0964590964591,-0.090480221269
2.9,-0.125763125763,-0.0876735312176
2.905,-0.047619047619,-0.0883649584257
2.91,-0.025641025641,-0.0837773230014
2.915,-0.101343101343,-0.0752994980374
2.92,-0.041514041514,-0.0696834578672
2.925,-0.015873015873,-0.0633005524528
2.93,-0.0903540903541,-0.0560285034438
2.935,-0.0708180708181,-0.0544488475053
2.94,0.00610500610501,-0.0540451520912
2.945,-0.032967032967,-0.0480983327061
2.95,-0.0720390720391,-0.0423814776601
2.955,-0.015873015873,-0.0406489865266
2.96,-0.02442002442,-0.038210415781
2.965,-0.0708180708181,-0.0362125310139
2.97,-0.014652014652,-0.0368841436099
2.975,0.02442002442,-0.033900596024
2.98,-0.0512820512821,-0.026966246278
2.985,-0.0622710622711,-0.0250574455383
2.99,-0.017094017094,-0.0283945573978
2.995,-0.029304029304,-0.0305979010661
3,-0.0720390720391,-0.0328509525677
3.005,-0.004884004884,-0.0361208763533
3.01,-0.014652014652,-0.0355136123563
3.015,-0.0671550671551,-0.0333368646387
3.02,-0.014652014652,-0.0336625711217
3.025,0.017094017094,-0.0312723514144
3.03,-0.0866910866911,-0.0274241966745
3.035,-0.029304029304,-0.0290328186042
3.04,0.03663003663,-0.0294797154009
3.045,-0.046398046398,-0.0243723491011
3.05,-0.0915750915751,-0.0241786877024
3.055,0.01221001221,-0.0296480205423
3.06,0.00732600732601,-0.0296270612454
3.065,-0.0879120879121,-0.026966103637
3.07,-0.035409035409,-0.0300880390736
3.075,0.00732600732601,-0.0330559296182
3.08,-0.0512820512821,-0.0317391483084
3.085,-0.01221001221,-0.0301915775411
3.09,0.039072039072,-0.0255491053802
3.095,-0.043956043956,-0.017537489908
3.1,-0.0927960927961,-0.0168950657795
3.105,-0.00610500610501,-0.0243326228378
3.11,0.020757020757,-0.0273870355306
3.115,-0.0622710622711,-0.0250747735654
3.12,-0.020757020757,-0.0250559495103
3.125,0.031746031746,-0.0237464794076
3.13,-0.0561660561661,-0.0193401912866
3.135,-0.0561660561661,-0.0199129558689
3.14,0.030525030525,-0.0228851158378
3.145,-0.03663003663,-0.0215884355964
3.15,-0.0830280830281,-0.0227687382605
3.155,0.002442002442,-0.0283853996609
3.16,0.014652014652,-0.0288388672195
3.165,-0.0659340659341,-0.0253174880805
3.17,-0.035409035409,-0.0259547386648
3.175,-0.003663003663,-0.0279563942991
3.18,-0.039072039072,-0.0275560257463
3.185,-0.043956043956,-0.0280759627161
3.19,0.020757020757,-0.0280513428995
3.195,-0.023199023199,-0.0240458652964
3.2,-0.0695970695971,-0.0220323109604
3.205,-0.004884004884,-0.0246932566377
3.21,-0.02442002442,-0.0262331584395
3.215,-0.0952380952381,-0.0290216618713
3.22,-0.037851037851,-0.0366974819786
3.225,0.025641025641,-0.0404037717495
3.23,-0.0610500610501,-0.0369677276854
3.235,-0.0500610500611,-0.0352155259794
3.24,0.023199023199,-0.034220498533
3.245,-0.03663003663,-0.0292753093557
3.25,-0.0866910866911,-0.0277497362017
3.255,-0.002442002442,-0.0316797549842
3.26,0.010989010989,-0.0314843906858
3.265,-0.0622710622711,-0.0275500259465
3.27,-0.031746031746,-0.0272342392588
3.275,-0.010989010989,-0.0283620958673
3.28,-0.0634920634921,-0.0290906018967
3.285,-0.0659340659341,-0.033487489295
3.29,0.00976800976801,-0.038032281384
3.295,-0.01221001221,-0.0359531703979
3.3,-0.0622710622711,-0.0318449001677
3.305,0.045177045177,-0.028172676067
3.31,0.03663003663,-0.0181826757553
3.315,-0.043956043956,-0.00647832676654
3.32,-0.021978021978,-0.00290617635297
3.325,0.021978021978,-0.00365473773781
3.33,-0.0573870573871,-0.00498197344889
3.335,-0.040293040293,-0.010855056109
3.34,0.0647130647131,-0.0151200760319
3.345,-0.023199023199,-0.0113859423206
3.35,-0.0683760683761,-0.00975783996878
3.355,0.01221001221,-0.0139720977282
3.36,0.013431013431,-0.0148746637432
3.365,-0.0695970695971,-0.0139819512454
3.37,-0.029304029304,-0.0181163811924
3.375,0.017094017094,-0.0219325349752
3.38,-0.0720390720391,-0.0228602009207
3.385,-0.0769230769231,-0.0285047161021
3.39,0.00732600732601,-0.0361033926699
3.395,-0.0512820512821,-0.038416866292
3.4,-0.0952380952381,-0.0412527137611
3.405,-0.021978021978,-0.0472017992646
3.41,-0.0512820512821,-0.0502046259896
3.415,-0.0976800976801,-0.0526688450142
3.42,-0.0537240537241,-0.058018381871
3.425,-0.025641025641,-0.0605891800027
3.43,-0.0903540903541,-0.0596854956091
3.435,-0.0671550671551,-0.0608446996975
3.44,0.026862026862,-0.0593122797168
3.445,0.002442002442,-0.0481208302995
3.45,-0.001221001221,-0.032328961377
3.455,0.179487179487,-0.0103166869573
3.46,0.258852258852,0.0308580566901
3.465,0.166056166056,0.0852373280084
3.47,0.0744810744811,0.12695132065
3.475,-0.0512820512821,0.136207429019
3.48,-0.192918192918,0.105430535158
3.485,-0.218559218559,0.0405916879543
3.49,-0.157509157509,-0.0351180278195
3.495,-0.188034188034,-0.0991620100062
3.5,-0.172161172161,-0.144918533586
3.505,-0.0854700854701,-0.169182194632
3.51,-0.0512820512821,-0.168090258671
3.515,-0.0879120879121,-0.149265904007
3.52,-0.0500610500611,-0.12525046143
3.525,0.026862026862,-0.0977624171355
3.53,-0.046398046398,-0.0681750791902
3.535,-0.041514041514,-0.0460002821064
3.54,0.035409035409,-0.0309433198758
3.545,-0.00610500610501,-0.0167580244139
3.55,-0.0537240537241,-0.00809738572123
3.555,0.041514041514,-0.00566708186206
3.56,0.021978021978,-0.00106036444764
3.565,-0.037851037851,0.00359769412221
3.57,0.00976800976801,0.00319694035503
3.575,0.035409035409,0.00319850008273
3.58,-0.032967032967,0.00480580936528
3.585,-0.035409035409,0.00166784387242
3.59,0.023199023199,-0.00390078965181
3.595,-0.013431013431,-0.0060323639121
3.6,-0.0573870573871,-0.00878391227941
3.605,0.041514041514,-0.0125155026807
3.61,0.037851037851,-0.00911229042584
3.615,-0.03663003663,-0.00203950235777
3.62,0.010989010989,0.000688785308277
3.625,0.046398046398,0.00336799259275
3.63,-0.00610500610501,0.00857033218499
3.635,0.01221001221,0.0116878724797
3.64,0.0671550671551,0.0150072755339
3.645,-0.001221001221,0.020573459332
3.65,-0.040293040293,0.0206411533551
3.655,0.0549450549451,0.0156263979907
3.66,0.0537240537241,0.0159656099927
3.665,-0.035409035409,0.0190443557794
3.67,0.037851037851,0.0180018775989
3.675,0.0818070818071,0.0198000365222
3.68,-0.015873015873,0.0255924495959
3.685,-0.00854700854701,0.0256338434964
3.69,0.0720390720391,0.0227265235168
3.695,-0.00732600732601,0.0230173396344
3.7,-0.018315018315,0.0207155047068
3.705,0.045177045177,0.0158171868544
3.71,0.020757020757,0.0147702838462
3.715,-0.0744810744811,0.0120931547573
3.72,-0.040293040293,0.000771869660768
3.725,-0.00732600732601,-0.0124299970734
3.73,-0.0805860805861,-0.0228814595492
3.735,-0.0805860805861,-0.0352900701208
3.74,-0.0598290598291,-0.0487935642349
3.745,-0.123321123321,-0.0613576591616
3.75,-0.153846153846,-0.0774499512182
3.755,-0.105006105006,-0.0958002612435
3.76,-0.136752136752,-0.110241478042
3.765,-0.172161172161,-0.122404763988
3.77,-0.129426129426,-0.133963300812
3.775,-0.113553113553,-0.140049892804
3.78,-0.15873015873,-0.140970325857
3.785,-0.137973137973,-0.141658521196
3.79,-0.0976800976801,-0.140415698821
3.795,-0.129426129426,-0.135241874605
3.8,-0.14652014652,-0.13094823748
3.805,-0.0830280830281,-0.127992433983
3.81,-0.0903540903541,-0.121508552722
3.815,-0.140415140415,-0.114542299138
3.82,-0.0927960927961,-0.111384294616
3.825,-0.042735042735,-0.106288466384
3.83,-0.115995115995,-0.0977439655066
3.835,-0.124542124542,-0.0939241789693
3.84,-0.0549450549451,-0.0940904780817
3.845,-0.0757020757021,-0.0911170673827
3.85,-0.0915750915751,-0.086584914286
3.855,-0.020757020757,-0.0812775533621
3.86,-0.045177045177,-0.0718931483427
3.865,-0.123321123321,-0.0648263225934
3.87,-0.0695970695971,-0.0660613389325
3.875,-0.026862026862,-0.0678281164704
3.88,-0.0866910866911,-0.065869148012
3.885,-0.0561660561661,-0.0645797205547
3.89,0.034188034188,-0.0596329920028
3.895,-0.034188034188,-0.0472101065859
3.9,-0.0683760683761,-0.0371202972223
3.905,0.001221001221,-0.0331377518346
3.91,-0.00854700854701,-0.0285002166274
3.915,-0.0647130647131,-0.0246779357708
3.92,-0.017094017094,-0.0253978679839
3.925,0.039072039072,-0.0238253641261
3.93,-0.0586080586081,-0.0185429055817
3.935,-0.0525030525031,-0.0185502447999
3.94,0.023199023199,-0.0216084328982
3.945,-0.015873015873,-0.0201390291889
3.95,-0.0549450549451,-0.0186291629352
3.955,0.003663003663,-0.0200817034726
3.96,-0.018315018315,-0.0201321172837
3.965,-0.0659340659341,-0.0210044739332
3.97,-0.023199023199,-0.0255560447794
3.975,-0.002442002442,-0.0283735141681
3.98,-0.0525030525031,-0.0282410758514
3.985,-0.035409035409,-0.0295549516201
3.99,0.045177045177,-0.028352366233
3.995,-0.004884004884,-0.0202197305776
4,-0.0586080586081,-0.0135591231508
4.005,0.00976800976801,-0.0129634105428
4.01,0.019536019536,-0.0111795616208
4.015,-0.0671550671551,-0.0090842143951
4.02,-0.023199023199,-0.0127423617609
4.025,0.01221001221,-0.0168653108518
4.03,-0.0549450549451,-0.0182593063524
4.035,-0.0647130647131,-0.023067040799
4.04,0.026862026862,-0.0284412280712
4.045,-0.045177045177,-0.0284271801055
4.05,-0.0647130647131,-0.029089016559
4.055,0.032967032967,-0.0305807312611
4.06,0.003663003663,-0.0254460898897
4.065,-0.0744810744811,-0.0198024701253
4.07,-0.028083028083,-0.0213712064407
4.075,0.023199023199,-0.0231559359217
4.08,-0.037851037851,-0.0206620192946
4.085,-0.0561660561661,-0.0206358776537
4.09,0.013431013431,-0.0231237624876
4.095,-0.034188034188,-0.0230093746623
4.1,-0.0818070818071,-0.0250158841656
4.105,-0.001221001221,-0.0305678976527
4.11,0.003663003663,-0.0313754181283
4.115,-0.0622710622711,-0.0285739896486
4.12,-0.028083028083,-0.028795426674
4.125,0.017094017094,-0.0282659323095
4.13,-0.0598290598291,-0.0252680743344
4.135,-0.0818070818071,-0.027636418868
4.14,0.003663003663,-0.0338403860714
4.145,-0.021978021978,-0.0350969330372
4.15,-0.0622710622711,-0.0339700460172
4.155,-0.021978021978,-0.0349205555932
4.16,-0.037851037851,-0.0355908196244
4.165,-0.0842490842491,-0.0377457101039
4.17,-0.0525030525031,-0.0437817222748
4.175,-0.010989010989,-0.0479090137513
4.18,-0.0537240537241,-0.0470126832443
4.185,-0.037851037851,-0.0451065920306
4.19,0.004884004884,-0.0415911121814
4.195,-0.0549450549451,-0.0360176994424
4.2,-0.0879120879121,-0.03553004522
4.205,-0.028083028083,-0.0406752720248
4.21,-0.021978021978,-0.0433605333231
4.215,-0.0708180708181,-0.0432702369639
4.22,-0.021978021978,-0.0438029940527
4.225,0.031746031746,-0.0398124013919
4.23,-0.0549450549451,-0.0311229046536
4.235,-0.046398046398,-0.0268516337519
4.24,0.018315018315,-0.0257667740258
4.245,-0.032967032967,-0.022450000391
4.25,-0.0512820512821,-0.0212386205505
4.255,0.001221001221,-0.0229197142962
4.26,-0.013431013431,-0.0223898621973
4.265,-0.0744810744811,-0.0226165485921
4.27,-0.030525030525,-0.0274543310562
4.275,0.0610500610501,-0.0282034867931
4.28,-0.040293040293,-0.0210018866272
4.285,-0.0512820512821,-0.0168515972557
4.29,0.041514041514,-0.0163759958512
4.295,-0.013431013431,-0.0122753676615
4.3,-0.046398046398,-0.00945799086488
4.305,0.020757020757,-0.0102700028961
4.31,0.014652014652,-0.00832364949201
4.315,-0.0647130647131,-0.00650639310586
4.32,-0.004884004884,-0.0099320823155
4.325,0.032967032967,-0.0116992563139
4.33,-0.0525030525031,-0.0100152540972
4.335,-0.0610500610501,-0.0134785958683
4.34,-0.004884004884,-0.020974809107
4.345,-0.0622710622711,-0.0269307570884
4.35,-0.0744810744811,-0.034297114541
4.355,-0.017094017094,-0.0421243749882
4.36,-0.021978021978,-0.0442278117141
4.365,-0.0647130647131,-0.0429027526364
4.37,-0.02442002442,-0.0424454332737
4.375,0.001221001221,-0.0395702634795
4.38,-0.0757020757021,-0.0353605884708
4.385,-0.0854700854701,-0.0376363365396
4.39,-0.004884004884,-0.0434140084303
4.395,0.00854700854701,-0.0422436884434
4.4,0.0500610500611,-0.0310003245317
4.405,0.173382173382,-0.00673876330409
4.41,0.234432234432,0.0355579066972
4.415,0.145299145299,0.0861294317497
4.42,0.0500610500611,0.121637913754
4.425,-0.045177045177,0.125893540887
4.43,-0.189255189255,0.0941662532398
4.435,-0.227106227106,0.0311638651857
4.44,-0.150183150183,-0.0421846026223
4.445,-0.145299145299,-0.101510239376
4.45,-0.161172161172,-0.139725116854
4.455,-0.0854700854701,-0.158252700456
4.46,-0.0769230769231,-0.157032404304
4.465,-0.102564102564,-0.143227052804
4.47,-0.020757020757,-0.123977216477
4.475,0.026862026862,-0.0970401324703
4.48,-0.0634920634921,-0.0672937748427
4.485,-0.0720390720391,-0.0481887248584
4.49,0.025641025641,-0.0382932176259
4.495,-0.037851037851,-0.0290640408881
4.5,-0.0537240537241,-0.0239497063679
4.505,0.02442002442,-0.0225914132898
4.51,0.013431013431,-0.0173603687979
4.515,-0.0622710622711,-0.0120911595928
4.52,-0.00732600732601,-0.0127322678079
4.525,0.042735042735,-0.0122752784657
4.53,-0.0537240537241,-0.00865886291402
4.535,-0.045177045177,-0.0103518984911
4.54,0.040293040293,-0.014062141044
4.545,-0.018315018315,-0.0125034582905
4.55,-0.0549450549451,-0.0117953842257
4.555,0.018315018315,-0.0143400042143
4.56,0.025641025641,-0.012607396598
4.565,-0.035409035409,-0.0078517156438
4.57,0.002442002442,-0.0060354029194
4.575,0.035409035409,-0.00380311409606
4.58,-0.047619047619,-0.000820602388115
4.585,-0.018315018315,-0.00280727031233
4.59,0.0695970695971,-0.00394224399507
4.595,0.01221001221,0.00236665488641
4.6,-0.02442002442,0.00824337458127
4.605,0.0598290598291,0.0106827030899
4.61,0.041514041514,0.0162197678304
4.615,-0.035409035409,0.020906750378
4.62,0,0.0180021537868
4.625,0.0659340659341,0.0146599251231
4.63,0.018315018315,0.0172392404708
4.635,0.020757020757,0.0210156960588
4.64,0.0769230769231,0.0253036579131
4.645,-0.01221001221,0.0302348058983
4.65,-0.035409035409,0.0278694383064
4.655,0.032967032967,0.0192540454756
4.66,0.042735042735,0.0148436137923
4.665,-0.025641025641,0.0142163098917
4.67,-0.013431013431,0.010270612419
4.675,-0.025641025641,0.00282993553184
4.68,-0.0854700854701,-0.00827989988005
4.685,-0.0879120879121,-0.0253401739758
4.69,-0.0549450549451,-0.0436433635339
4.695,-0.10989010989,-0.0587861087459
4.7,-0.144078144078,-0.0747060160406
4.705,-0.106227106227,-0.0920133741749
4.71,-0.102564102564,-0.104725320623
4.715,-0.159951159951,-0.113394757244
4.72,-0.120879120879,-0.121799583339
4.725,-0.100122100122,-0.126608234097
4.73,-0.169719169719,-0.128253972036
4.735,-0.166056166056,-0.133335204065
4.74,-0.0891330891331,-0.138492504728
4.745,-0.123321123321,-0.137046528927
4.75,-0.152625152625,-0.133577361606
4.755,-0.0940170940171,-0.131330475326
4.76,-0.0927960927961,-0.125987463444
4.765,-0.142857142857,-0.11960072729
4.77,-0.10989010989,-0.11692085864
4.775,-0.0525030525031,-0.113178962271
4.78,-0.124542124542,-0.106112956189
4.785,-0.114774114774,-0.102264582811
4.79,-0.0561660561661,-0.100427175234
4.795,-0.0720390720391,-0.0947920811498
4.8,-0.0879120879121,-0.0878221236678
4.805,-0.0512820512821,-0.0819887537087
4.81,-0.0634920634921,-0.0757066883688
4.815,-0.0964590964591,-0.0713207199033
4.82,-0.0500610500611,-0.0701411072544
4.825,-0.01221001221,-0.0662499313274
4.83,-0.0903540903541,-0.0597154317088
4.835,-0.0757020757021,-0.0578744999924
4.84,-0.001221001221,-0.0574987576767
4.845,-0.032967032967,-0.0518296335569
4.85,-0.0647130647131,-0.045560825911
4.855,-0.020757020757,-0.0425195855838
4.86,-0.020757020757,-0.0390358525606
4.865,-0.0659340659341,-0.0360336667308
4.87,-0.017094017094,-0.035737414221
4.875,0.032967032967,-0.0320951725982
4.88,-0.0537240537241,-0.0246067489421
4.885,-0.0500610500611,-0.0221285885028
4.89,0.010989010989,-0.0234167296532
4.895,-0.029304029304,-0.0223765978562
4.9,-0.0683760683761,-0.0230870209097
4.905,0.015873015873,-0.0261044515049
4.91,-0.001221001221,-0.0245176158214
4.915,-0.0598290598291,-0.0213534489043
4.92,-0.015873015873,-0.0221656030869
4.925,0.035409035409,-0.0210659149803
4.93,-0.0781440781441,-0.0177080531761
4.935,-0.0549450549451,-0.020900084114
4.94,0.045177045177,-0.0252035872564
4.945,-0.030525030525,-0.0224440472206
4.95,-0.0854700854701,-0.0216204741784
4.955,-0.020757020757,-0.0274773767104
4.96,-0.025641025641,-0.0323284227655
4.965,-0.0683760683761,-0.0352263564432
4.97,0.001221001221,-0.0375865367151
4.975,0.001221001221,-0.0347968938566
4.98,-0.0781440781441,-0.0304398858655
4.985,-0.0610500610501,-0.0326499454988
4.99,0.02442002442,-0.0358231626573
4.995,-0.028083028083,-0.0326322320475
5,-0.0769230769231,-0.0300544604576
5.005,-0.002442002442,-0.0317461901466
5.01,-0.00976800976801,-0.0309446916667
5.015,-0.0683760683761,-0.0290085643535
5.02,-0.021978021978,-0.0304766080112
5.025,0.00610500610501,-0.0304752942913
5.03,-0.046398046398,-0.0274421685952
5.035,-0.0634920634921,-0.0278148328603
5.04,0.014652014652,-0.0301880285159
5.045,-0.032967032967,-0.0288826668199
5.05,-0.0720390720391,-0.0286000617401
5.055,0.001221001221,-0.0312946696337
5.06,-0.017094017094,-0.0308444088003
5.065,-0.0659340659341,-0.029493818284
5.07,-0.029304029304,-0.0316109094441
5.075,0.00732600732601,-0.0322264386316
5.08,-0.0683760683761,-0.0304127437564
5.085,-0.041514041514,-0.0317945458534
5.09,0.034188034188,-0.0320145649679
5.095,-0.028083028083,-0.0262715417467
5.1,-0.0671550671551,-0.0227111084175
5.105,0.032967032967,-0.0227398868895
5.11,-0.002442002442,-0.0187268936077
5.115,-0.0781440781441,-0.015607039459
5.12,-0.03663003663,-0.0202050514572
5.125,0.018315018315,-0.0248776698328
5.13,-0.043956043956,-0.0246128852853
5.135,-0.039072039072,-0.0249540158077
5.14,0.010989010989,-0.0256428488865
5.145,-0.028083028083,-0.0233339206116
5.15,-0.0622710622711,-0.0228493930284
5.155,0.026862026862,-0.0241964413535
5.16,0.03663003663,-0.0190985137346
5.165,-0.035409035409,-0.0100817648295
5.17,0.0512820512821,-0.00299827964496
5.175,0.045177045177,0.00622081199861
5.18,-0.0525030525031,0.0137188350409
5.185,-0.047619047619,0.00991818136779
5.19,0.019536019536,0.000304465460248
5.195,-0.035409035409,-0.00650763135027
5.2,-0.0512820512821,-0.013388535758
5.205,0,-0.0206670491164
5.21,-0.021978021978,-0.0238126973771
5.215,-0.0830280830281,-0.0268236817299
5.22,-0.0525030525031,-0.0344512379493
5.225,-0.01221001221,-0.0410829984903
5.23,-0.0757020757021,-0.0438045217911
5.235,-0.0671550671551,-0.0477056746171
5.24,-0.00854700854701,-0.0509038449718
5.245,-0.04884004884,-0.0492232414293
5.25,-0.0842490842491,-0.0481006826357
5.255,0.014652014652,-0.0480229895857
5.26,0.035409035409,-0.040024462774
5.265,-0.042735042735,-0.0267336424919
5.27,0.0793650793651,-0.0139121223355
5.275,0.25641025641,0.0121405542127
5.28,0.178266178266,0.0582556453714
5.285,0.0854700854701,0.102404896294
5.29,-0.014652014652,0.120655142876
5.295,-0.141636141636,0.103423791719
5.3,-0.21978021978,0.0519820564373
5.305,-0.172161172161,-0.0176634730215
5.31,-0.142857142857,-0.0812699305998
5.315,-0.175824175824,-0.126789557473
5.32,-0.112332112332,-0.153775056294
5.325,-0.04884004884,-0.159399504085
5.33,-0.0708180708181,-0.145707337768
5.335,-0.0695970695971,-0.124084042706
5.34,0.001221001221,-0.100184474303
5.345,-0.032967032967,-0.0745624256411
5.35,-0.0647130647131,-0.0541730529016
5.355,0.003663003663,-0.0414714159268
5.36,0.003663003663,-0.0300503782357
5.365,-0.041514041514,-0.0202964343981
5.37,-0.003663003663,-0.0155843161726
5.375,0.04884004884,-0.0103911084083
5.38,-0.04884004884,-0.00383548454565
5.385,-0.030525030525,-0.00356485138579
5.39,0.025641025641,-0.0066605006926
5.395,-0.045177045177,-0.00808047503833
5.4,-0.0561660561661,-0.0128641399786
5.405,0.019536019536,-0.0192079705917
5.41,0.019536019536,-0.018670896953
5.415,-0.041514041514,-0.014172891259
5.42,0.00854700854701,-0.0118801473578
5.425,0.029304029304,-0.00833502947661
5.43,-0.042735042735,-0.00392691766556
5.435,-0.023199023199,-0.00469558531389
5.44,0.0537240537241,-0.00584064483385
5.445,-0.00854700854701,-0.00183376805749
5.45,-0.0525030525031,-0.000257007752253
5.455,0.030525030525,-0.00326434791036
5.46,0.02442002442,-0.00262020495411
5.465,-0.047619047619,-0.0003554068064
5.47,0.002442002442,-0.00233028039094
5.475,0.0561660561661,-0.00225195039801
5.48,-0.004884004884,0.00327154817286
5.485,-0.002442002442,0.00741215423149
5.49,0.0842490842491,0.0115167570199
5.495,0.015873015873,0.0198030168936
5.5,-0.02442002442,0.0244486294767
5.505,0.0500610500611,0.0230105390622
5.51,0.0525030525031,0.0239715316635
5.515,-0.028083028083,0.0258787663814
5.52,0.020757020757,0.022830009052
5.525,0.0634920634921,0.0206664352126
5.53,-0.045177045177,0.0205203104068
5.535,-0.042735042735,0.0134512506039
5.54,0.015873015873,0.00219774201592
5.545,-0.042735042735,-0.00622080183231
5.55,-0.0879120879121,-0.0164794188026
5.555,-0.0549450549451,-0.0311010760353
5.56,-0.0818070818071,-0.045452071203
5.565,-0.145299145299,-0.0609083644604
5.57,-0.114774114774,-0.0797451758526
5.575,-0.100122100122,-0.0962053933438
5.58,-0.141636141636,-0.107614510089
5.585,-0.14652014652,-0.117813760413
5.59,-0.0940170940171,-0.12547961745
5.595,-0.124542124542,-0.127274323226
5.6,-0.169719169719,-0.128328740334
5.605,-0.101343101343,-0.131246566197
5.61,-0.100122100122,-0.130261570039
5.615,-0.145299145299,-0.126356010124
5.62,-0.0891330891331,-0.123255591921
5.625,-0.0720390720391,-0.117236701701
5.63,-0.151404151404,-0.110386177357
5.635,-0.120879120879,-0.109516509096
5.64,-0.0586080586081,-0.109721004981
5.645,-0.0952380952381,-0.104952335175
5.65,-0.140415140415,-0.101208792339
5.655,-0.0708180708181,-0.101307573375
5.66,-0.0720390720391,-0.0989969775329
5.665,-0.119658119658,-0.0950265566722
5.67,-0.0757020757021,-0.0933945246604
5.675,-0.047619047619,-0.0900593839568
5.68,-0.10989010989,-0.0847559211736
5.685,-0.0818070818071,-0.0826173579412
5.69,0.001221001221,-0.0788813539797
5.695,-0.0573870573871,-0.068796807979
5.7,-0.108669108669,-0.061393733504
5.705,-0.037851037851,-0.0608437052198
5.71,-0.020757020757,-0.0588088092703
5.715,-0.0769230769231,-0.0541660514338
5.72,-0.032967032967,-0.0514631637918
5.725,0.01221001221,-0.0466644842002
5.73,-0.0659340659341,-0.0391295140425
5.735,-0.0757020757021,-0.0372155813898
5.74,0.01221001221,-0.0388699323109
5.745,-0.019536019536,-0.0357779674672
5.75,-0.0683760683761,-0.0320487978233
5.755,0.010989010989,-0.0310037827789
5.76,0.001221001221,-0.0268528886141
5.765,-0.0793650793651,-0.0228979967766
5.77,-0.037851037851,-0.0257399470207
5.775,0.031746031746,-0.028076958016
5.78,-0.03663003663,-0.0245523088198
5.785,-0.030525030525,-0.0216115664218
5.79,0.028083028083,-0.0193879895445
5.795,-0.023199023199,-0.0146041416659
5.8,-0.0549450549451,-0.0129361444468
5.805,0.00976800976801,-0.0154177580359
5.81,0.020757020757,-0.0144691739576
5.815,-0.0537240537241,-0.0114453463953
5.82,-0.028083028083,-0.0131409499259
5.825,0.015873015873,-0.0158871836612
5.83,-0.035409035409,-0.0157706990223
5.835,-0.023199023199,-0.0164082145344
5.84,0.025641025641,-0.0162850318297
5.845,-0.03663003663,-0.0136137065131
5.85,-0.0634920634921,-0.0149135725625
5.855,0.026862026862,-0.019109525189
5.86,0.029304029304,-0.0167456869141
5.865,-0.0586080586081,-0.0112538937581
5.87,-0.013431013431,-0.0111514529759
5.875,0.019536019536,-0.0120849821395
5.88,-0.0598290598291,-0.0118912508157
5.885,-0.0744810744811,-0.0176564711585
5.89,0,-0.0268656924635
5.895,-0.030525030525,-0.03128156982
5.9,-0.0647130647131,-0.033482731218
5.905,0.00610500610501,-0.0354840147313
5.91,0.017094017094,-0.0315539868868
5.915,-0.0793650793651,-0.0256010455609
5.92,-0.02442002442,-0.0256096968894
5.925,0.0561660561661,-0.0242115580586
5.93,-0.034188034188,-0.0165778576394
5.935,-0.0525030525031,-0.0127497748611
5.94,0.021978021978,-0.0139217872647
5.945,-0.017094017094,-0.0131121154877
5.95,-0.0634920634921,-0.0137866401073
5.955,-0.025641025641,-0.0194038205065
5.96,0.001221001221,-0.0238242954972
5.965,-0.0695970695971,-0.0258829594403
5.97,-0.039072039072,-0.0302867383789
5.975,0,-0.0336794088558
5.98,-0.035409035409,-0.032569144605
5.985,-0.039072039072,-0.0310826385283
5.99,0.020757020757,-0.0288968151205
5.995,-0.018315018315,-0.0232218026219
6,-0.0695970695971,-0.0200885966853
6.005,-0.002442002442,-0.022219590253
6.01,-0.00976800976801,-0.0230540820875
6.015,-0.0744810744811,-0.0236602219223
6.02,-0.023199023199,-0.0279850952255
6.025,0.039072039072,-0.0287220174502
6.03,-0.0512820512821,-0.0236154701592
6.035,-0.046398046398,-0.0218157397301
6.04,0.043956043956,-0.0215238256383
6.045,-0.014652014652,-0.0161693335502
6.05,-0.0573870573871,-0.0125236913698
6.055,0.004884004884,-0.0141651107676
6.06,0,-0.0145552850482
6.065,-0.0634920634921,-0.0147650267779
6.07,-0.040293040293,-0.0198604283298
6.075,-0.013431013431,-0.0259678010519
6.08,-0.0989010989011,-0.0318401860471
6.085,-0.0964590964591,-0.0430473168482
6.09,-0.00976800976801,-0.054528485425
6.095,-0.04884004884,-0.0577172186386
6.1,-0.0927960927961,-0.0578727052398
6.105,-0.039072039072,-0.0598873317311
6.11,-0.034188034188,-0.0592902413144
6.115,-0.0805860805861,-0.0567302781764
6.12,-0.00732600732601,-0.0543532569055
6.125,0.039072039072,-0.045745595381
6.13,-0.035409035409,-0.0314374524846
6.135,-0.032967032967,-0.021584797665
6.14,0.0732600732601,-0.0140516796929
6.145,0.106227106227,0.00238497473984
6.15,0.166056166056,0.0308696148708
6.155,0.247863247863,0.0708381921202
6.16,0.0805860805861,0.111670461581
6.165,-0.135531135531,0.123763277859
6.17,-0.181929181929,0.0896932497862
6.175,-0.168498168498,0.025575486349
6.18,-0.179487179487,-0.0428968238141
6.185,-0.14652014652,-0.0997492093658
6.19,-0.0830280830281,-0.134932244094
6.195,-0.103785103785,-0.146544523253
6.2,-0.123321123321,-0.144308980953
6.205,-0.047619047619,-0.134943178153
6.21,-0.018315018315,-0.116363709187
6.215,-0.0647130647131,-0.092625720952
6.22,-0.015873015873,-0.0714069383555
6.225,0.028083028083,-0.0509490696766
6.23,-0.0610500610501,-0.0324437086898
6.235,-0.0525030525031,-0.0241150371104
6.24,0.013431013431,-0.0226098873654
6.245,0.00854700854701,-0.0184860747184
6.25,-0.031746031746,-0.0131030764197
6.255,0.017094017094,-0.00978391445776
6.26,-0.00732600732601,-0.00657141951245
6.265,-0.0769230769231,-0.00721481567631
6.27,-0.019536019536,-0.0145363100165
6.275,0.0549450549451,-0.0182711151545
6.28,-0.023199023199,-0.0136384358841
6.285,-0.0622710622711,-0.0113217524416
6.29,0.03663003663,-0.013218963591
6.295,-0.001221001221,-0.0112621609084
6.3,-0.0586080586081,-0.00934814602421
6.305,0.002442002442,-0.0120328865275
6.31,0.0647130647131,-0.0106259369211
6.315,-0.02442002442,-0.00301643258297
6.32,0.00976800976801,0.00246549537383
6.325,0.0561660561661,0.00707235708865
6.33,-0.030525030525,0.0122575497462
6.335,-0.019536019536,0.0114192997777
6.34,0.0964590964591,0.0101390603829
6.345,0.032967032967,0.0171577512233
6.35,-0.020757020757,0.023977487788
6.355,0.0561660561661,0.0251037712804
6.36,0.03663003663,0.0269396960523
6.365,-0.037851037851,0.0270960434159
6.37,0.003663003663,0.0205394970994
6.375,0.0512820512821,0.0144823700994
6.38,-0.00610500610501,0.0134498225014
6.385,-0.003663003663,0.0120936273716
6.39,0.0879120879121,0.0126309769004
6.395,0.001221001221,0.0185629251769
6.4,-0.0512820512821,0.0198574287415
6.405,0.015873015873,0.0128869564768
6.41,0,0.00617956702777
6.415,-0.0622710622711,-0.000399932929624
6.42,-0.0720390720391,-0.0126306578724
6.425,-0.0586080586081,-0.0285381341424
6.43,-0.108669108669,-0.0448393481605
6.435,-0.123321123321,-0.0630013296002
6.44,-0.0903540903541,-0.0808675049887
6.445,-0.119658119658,-0.0942775181125
6.45,-0.155067155067,-0.105837773152
6.455,-0.114774114774,-0.117115135286
6.46,-0.0940170940171,-0.123130729794
6.465,-0.152625152625,-0.124378268986
6.47,-0.133089133089,-0.126599215463
6.475,-0.0842490842491,-0.12753722282
6.48,-0.140415140415,-0.124854827805
6.485,-0.145299145299,-0.124041160719
6.49,-0.0866910866911,-0.124634662531
6.495,-0.106227106227,-0.121529859008
6.5,-0.123321123321,-0.117066450416
6.505,-0.0793650793651,-0.113209099448
6.51,-0.0793650793651,-0.107094636012
6.515,-0.131868131868,-0.101392670821
6.52,-0.0952380952381,-0.100100056287
6.525,-0.039072039072,-0.0976659367541
6.53,-0.0854700854701,-0.0903881054956
6.535,-0.0744810744811,-0.0832539021421
6.54,-0.041514041514,-0.0771125024719
6.545,-0.0830280830281,-0.0709591485251
6.55,-0.102564102564,-0.0691460147857
6.555,-0.0512820512821,-0.0711538746443
6.56,-0.034188034188,-0.0700516282301
6.565,-0.0854700854701,-0.0660460323187
6.57,-0.0549450549451,-0.0638863894276
6.575,-0.00610500610501,-0.0603294263343
6.58,-0.0695970695971,-0.0537562702419
6.585,-0.0634920634921,-0.050235931881
6.59,0.003663003663,-0.0481343540218
6.595,-0.037851037851,-0.0425558523133
6.6,-0.0573870573871,-0.0379302248687
6.605,-0.003663003663,-0.0358659804741
6.61,-0.003663003663,-0.031386821822
6.615,-0.0781440781441,-0.0275040642017
6.62,-0.0512820512821,-0.030263797
6.625,-0.014652014652,-0.0350488912558
6.63,-0.0586080586081,-0.0373560615888
6.635,-0.0525030525031,-0.0401029214203
6.64,0.031746031746,-0.0401370951238
6.645,-0.028083028083,-0.0335360938676
6.65,-0.0647130647131,-0.0282131889185
6.655,0.002442002442,-0.0275427454453
6.66,0,-0.0248906495603
6.665,-0.0586080586081,-0.0215843556592
6.67,-0.0500610500611,-0.0236921761401
6.675,0.010989010989,-0.0271725423116
6.68,-0.043956043956,-0.0271934478219
6.685,-0.046398046398,-0.0278748240501
6.69,0.0781440781441,-0.0257699651122
6.695,-0.01221001221,-0.0154733510722
6.7,-0.0708180708181,-0.00834267382143
6.705,0.00610500610501,-0.0101118345678
6.71,0.001221001221,-0.0117633892423
6.715,-0.0671550671551,-0.0131086740245
6.72,-0.018315018315,-0.0183359408684
6.725,0.0500610500611,-0.0200016821022
6.73,-0.032967032967,-0.0148769799966
6.735,-0.0537240537241,-0.0128220194421
6.74,0.029304029304,-0.0145711090291
6.745,-0.010989010989,-0.0130242015534
6.75,-0.045177045177,-0.0116062305602
6.755,0.019536019536,-0.0125410978565
6.76,0.001221001221,-0.0109120112023
6.765,-0.0793650793651,-0.0107446118595
6.77,-0.01221001221,-0.0165090607316
6.775,0.032967032967,-0.0195646815657
6.78,-0.0573870573871,-0.0176262381723
6.785,-0.0512820512821,-0.0195600090146
6.79,0.047619047619,-0.0220837900944
6.795,-0.026862026862,-0.0184613785636
6.8,-0.0683760683761,-0.0167091517831
6.805,0.00610500610501,-0.0200302733593
6.81,0.018315018315,-0.019713647753
6.815,-0.0634920634921,-0.0168777817921
6.82,-0.0500610500611,-0.0196911665206
6.825,0.00976800976801,-0.0245384678924
6.83,-0.0525030525031,-0.0262246501411
6.835,-0.0732600732601,-0.0299878978863
6.84,0.013431013431,-0.034866828073
6.845,-0.015873015873,-0.033705143515
6.85,-0.0610500610501,-0.0305755509274
6.855,0.001221001221,-0.0297029804466
6.86,0.015873015873,-0.0257642760781
6.865,-0.0549450549451,-0.0200868488907
6.87,-0.020757020757,-0.0188827873213
6.875,0.00610500610501,-0.018974424091
6.88,-0.0537240537241,-0.0183908709885
6.885,-0.04884004884,-0.0216384757106
6.89,0.020757020757,-0.0252697875133
6.895,0.00732600732601,-0.022392747749
6.9,-0.0659340659341,-0.0182538878231
6.905,-0.034188034188,-0.0201725151702
6.91,0.00732600732601,-0.023251748283
6.915,-0.042735042735,-0.0233482489295
6.92,-0.023199023199,-0.0237624618277
6.925,0.037851037851,-0.0219470894953
6.93,-0.035409035409,-0.0162158541971
6.935,-0.042735042735,-0.013897169411
6.94,0.00610500610501,-0.0154871427315
6.945,-0.025641025641,-0.0160023532408
6.95,-0.0549450549451,-0.0179216834111
6.955,-0.00732600732601,-0.0221488527088
6.96,-0.021978021978,-0.0243652843405
6.965,-0.0732600732601,-0.026704647281
6.97,-0.041514041514,-0.0326156822985
6.975,-0.028083028083,-0.0380096958402
6.98,-0.100122100122,-0.0427736864858
6.985,-0.106227106227,-0.0526573607755
6.99,-0.019536019536,-0.0631224973334
6.995,-0.042735042735,-0.0652959172874
7,-0.0769230769231,-0.062708679498
7.005,-0.028083028083,-0.0602289522737
7.01,-0.020757020757,-0.0549927119755
7.015,-0.0757020757021,-0.0489727247134
7.02,-0.02442002442,-0.0460438659881
7.025,0.047619047619,-0.0396556715335
7.03,-0.002442002442,-0.0260420177084
7.035,0.037851037851,-0.0108236142147
7.04,0.21978021978,0.0121767109739
7.045,0.210012210012,0.0529537113811
7.05,-0.00854700854701,0.0923579907595
7.055,-0.0634920634921,0.100665595939
7.06,-0.137973137973,0.0735585914139
7.065,-0.206349206349,0.0214753103011
7.07,-0.186813186813,-0.0421241637202
7.075,-0.124542124542,-0.0981307803045
7.08,-0.137973137973,-0.134041404502
7.085,-0.124542124542,-0.151189007023
7.09,-0.0525030525031,-0.152001637585
7.095,-0.0622710622711,-0.137815011205
7.1,-0.0781440781441,-0.117179575674
7.105,-0.025641025641,-0.0966733933183
7.11,0.014652014652,-0.0740440672523
7.115,-0.026862026862,-0.0503217554932
7.12,-0.034188034188,-0.0327487184143
7.125,0.003663003663,-0.0222875781481
7.13,-0.04884004884,-0.0165222699472
7.135,-0.037851037851,-0.016721327035
7.14,0.035409035409,-0.0178455559765
7.145,-0.020757020757,-0.0145422050343
7.15,-0.0500610500611,-0.012825185506
7.155,-0.00732600732601,-0.0155284722138
7.16,0.014652014652,-0.0163019625235
7.165,-0.0683760683761,-0.0158146443817
7.17,-0.020757020757,-0.0192470006188
7.175,0.047619047619,-0.0202561564459
7.18,-0.018315018315,-0.0144236182421
7.185,-0.021978021978,-0.00940049745073
7.19,0.025641025641,-0.00688522722507
7.195,-0.019536019536,-0.00392705889584
7.2,-0.0573870573871,-0.00501451152421
7.205,0.031746031746,-0.00935548710269
7.21,0.0598290598291,-0.00672243281476
7.215,-0.023199023199,0.00172734086781
7.22,-0.013431013431,0.00556430157841
7.225,0.041514041514,0.00603031186603
7.23,-0.026862026862,0.0071181893478
7.235,-0.023199023199,0.00470623858311
7.24,0.0805860805861,0.00298954453387
7.245,0.026862026862,0.00919774428794
7.25,-0.019536019536,0.0158485155695
7.255,0.0818070818071,0.0194056021788
7.26,0.0512820512821,0.0265864771745
7.265,-0.014652014652,0.0330416421068
7.27,0.042735042735,0.03310461953
7.275,0.117216117216,0.0357012455204
7.28,0.00732600732601,0.0435146346838
7.285,-0.023199023199,0.0443408228417
7.29,0.046398046398,0.0369030259522
7.295,-0.013431013431,0.0290264554518
7.3,-0.0622710622711,0.017825046365
7.305,-0.042735042735,0.000690456228084
7.31,-0.035409035409,-0.0163130008438
7.315,-0.0757020757021,-0.0303959995368
7.32,-0.0720390720391,-0.0436546228673
7.325,-0.0537240537241,-0.0547371553967
7.33,-0.118437118437,-0.063830970785
7.335,-0.131868131868,-0.0760140070216
7.34,-0.0903540903541,-0.0897776646627
7.345,-0.136752136752,-0.100708709184
7.35,-0.184371184371,-0.112792050702
7.355,-0.128205128205,-0.127155289772
7.36,-0.105006105006,-0.135933858909
7.365,-0.147741147741,-0.137585911828
7.37,-0.124542124542,-0.137230671722
7.375,-0.0964590964591,-0.134489270155
7.38,-0.135531135531,-0.129221397799
7.385,-0.13431013431,-0.125936121438
7.39,-0.0915750915751,-0.123950497993
7.395,-0.111111111111,-0.119872477038
7.4,-0.126984126984,-0.116081165073
7.405,-0.0586080586081,-0.112341882497
7.41,-0.0659340659341,-0.104079778224
7.415,-0.136752136752,-0.095906455745
7.42,-0.0903540903541,-0.0940164644998
7.425,-0.021978021978,-0.0913972502397
7.43,-0.0818070818071,-0.0832136858178
7.435,-0.103785103785,-0.0771832153925
7.44,-0.0512820512821,-0.075690182256
7.445,-0.0805860805861,-0.0742258341264
7.45,-0.107448107448,-0.0745666343471
7.455,-0.030525030525,-0.0760139766366
7.46,-0.01221001221,-0.071035544409
7.465,-0.0695970695971,-0.0612244524539
7.47,-0.030525030525,-0.0534943810901
7.475,0.004884004884,-0.0456231482209
7.48,-0.0525030525031,-0.0367128865964
7.485,-0.0610500610501,-0.0329913466598
7.49,0.003663003663,-0.0329590248137
7.495,-0.046398046398,-0.0314801046026
7.5,-0.0866910866911,-0.0330549038057
7.505,-0.00732600732601,-0.0382066997256
7.51,-0.002442002442,-0.0384780342293
7.515,-0.041514041514,-0.0339896230326
7.52,-0.00976800976801,-0.0299036621897
7.525,0.017094017094,-0.024403868863
7.53,-0.0573870573871,-0.0187166540484
7.535,-0.025641025641,-0.0181549059402
7.54,0.0573870573871,-0.0168942906756
7.545,-0.023199023199,-0.0101151910853
7.55,-0.0647130647131,-0.00739300639041
7.555,0.004884004884,-0.0115055572034
7.56,-0.01221001221,-0.0145030559355
7.565,-0.0781440781441,-0.0178072130029
7.57,-0.046398046398,-0.0260598722343
7.575,0.018315018315,-0.0323507488953
7.58,-0.040293040293,-0.0317844920916
7.585,-0.04884004884,-0.0307666522591
7.59,0.021978021978,-0.0299398454564
7.595,-0.021978021978,-0.0252476893589
7.6,-0.0732600732601,-0.0226746488971
7.605,-0.013431013431,-0.0256178274651
7.61,-0.001221001221,-0.0270132724091
7.615,-0.0598290598291,-0.0262071587366
7.62,-0.02442002442,-0.0276776797421
7.625,0,-0.0283067168054
7.63,-0.0744810744811,-0.0279552114218
7.635,-0.0671550671551,-0.0325937162924
7.64,0.017094017094,-0.0377038991815
7.645,-0.00610500610501,-0.0350622179739
7.65,-0.0586080586081,-0.0297714610411
7.655,-0.002442002442,-0.0274774370706
7.66,0.002442002442,-0.0240952225877
7.665,-0.0622710622711,-0.0207456063043
7.67,-0.0500610500611,-0.0232122003311
7.675,0.002442002442,-0.0275208541859
7.68,-0.0512820512821,-0.0290113884306
7.685,-0.0647130647131,-0.0319952040962
7.69,-0.020757020757,-0.0368526482637
7.695,-0.032967032967,-0.0388625589234
7.7,-0.042735042735,-0.0386505186616
7.705,0.029304029304,-0.0355260323832
7.71,-0.014652014652,-0.0273775252294
7.715,-0.0793650793651,-0.0219793455278
7.72,-0.030525030525,-0.0246752741957
7.725,0.02442002442,-0.026798969177
7.73,-0.040293040293,-0.0239121751477
7.735,-0.0549450549451,-0.0232057233797
7.74,0.019536019536,-0.0246031819768
7.745,-0.014652014652,-0.0221586873956
7.75,-0.0695970695971,-0.0205288284548
7.755,-0.046398046398,-0.0251767422929
7.76,-0.01221001221,-0.0308716083204
7.765,-0.0573870573871,-0.0338900950224
7.77,-0.042735042735,-0.0369504302433
7.775,-0.021978021978,-0.0392413240162
7.78,-0.0561660561661,-0.0397171790761
7.785,-0.040293040293,-0.0406770693341
7.79,0.037851037851,-0.0382056149816
7.795,-0.019536019536,-0.0292078971837
7.8,-0.0695970695971,-0.0226600229615
7.805,-0.00976800976801,-0.0230314316747
7.81,-0.01221001221,-0.0236393091278
7.815,-0.0561660561661,-0.0237443719912
7.82,-0.019536019536,-0.0260611449436
7.825,0.035409035409,-0.0251515942565
7.83,-0.032967032967,-0.0192182078237
7.835,-0.0500610500611,-0.0164713946492
7.84,-0.00732600732601,-0.0185586613126
7.845,-0.045177045177,-0.0212300554383
7.85,-0.0757020757021,-0.0266247890051
7.855,-0.028083028083,-0.0347291525508
7.86,-0.042735042735,-0.0403612632438
7.865,-0.0854700854701,-0.0448647518005
7.87,-0.0525030525031,-0.0510801382757
7.875,-0.015873015873,-0.0542305268333
7.88,-0.0781440781441,-0.0532644079816
7.885,-0.0952380952381,-0.0552961364808
7.89,-0.018315018315,-0.0593285655913
7.895,-0.041514041514,-0.0583624610972
7.9,-0.0805860805861,-0.0555105780802
7.905,-0.040293040293,-0.0550738454549
7.91,-0.030525030525,-0.0535397689585
7.915,-0.0769230769231,-0.0511294873175
7.92,-0.021978021978,-0.0500285605005
7.925,0.0927960927961,-0.0415510013052
7.93,0.0891330891331,-0.0180546574319
7.935,0.194139194139,0.0182932894753
7.94,0.294261294261,0.0683927005069
7.945,0.0781440781441,0.120122415444
7.95,-0.124542124542,0.138437173737
7.955,-0.156288156288,0.106803538352
7.96,-0.172161172161,0.0434304042302
7.965,-0.205128205128,-0.0283083681958
7.97,-0.153846153846,-0.0923318831712
7.975,-0.105006105006,-0.135283141922
7.98,-0.129426129426,-0.154199778681
7.985,-0.101343101343,-0.156509739361
7.99,-0.018315018315,-0.144931346181
7.995,-0.032967032967,-0.120378952147
8,-0.045177045177,-0.0920612529096
8.005,-0.001221001221,-0.0668918085376
8.01,0.015873015873,-0.0436343107527
8.015,-0.0610500610501,-0.0255524458494
8.02,-0.039072039072,-0.0186473533338
8.025,0.041514041514,-0.0163165592158
8.03,-0.021978021978,-0.0111455112635
8.035,-0.042735042735,-0.00862977502925
8.04,0.02442002442,-0.009630311963
8.045,-0.015873015873,-0.00879594958198
8.05,-0.0537240537241,-0.00957885726551
8.055,0.035409035409,-0.0122518840954
8.06,0.032967032967,-0.00899629897738
8.065,-0.045177045177,-0.0031440590536
8.07,-0.015873015873,-0.00306531060478
8.075,0.042735042735,-0.00403810357241
8.08,-0.018315018315,-0.00140566163815
8.085,-0.018315018315,-0.00041488152993
8.09,0.0573870573871,0.00026160715558
8.095,0.019536019536,0.00589710266622
8.1,-0.017094017094,0.0112417865631
8.105,0.0561660561661,0.0137110695632
8.11,0.03663003663,0.0184787423313
8.115,-0.028083028083,0.0220888512998
8.12,0.019536019536,0.0197883530016
8.125,0.0903540903541,0.0196805901439
8.13,-0.003663003663,0.0250646315493
8.135,-0.017094017094,0.0261291197904
8.14,0.037851037851,0.0218311146015
8.145,0.020757020757,0.0193501225553
8.15,0.003663003663,0.0183895513042
8.155,0.0708180708181,0.019086243964
8.16,0.0854700854701,0.0265527551058
8.165,0.010989010989,0.0369848571238
8.17,0.040293040293,0.0421063455076
8.175,0.0671550671551,0.0441778980451
8.18,-0.01221001221,0.0445361779638
8.185,-0.014652014652,0.0377897685146
8.19,0.047619047619,0.0277801962345
8.195,-0.015873015873,0.0207164943328
8.2,-0.0793650793651,0.0104907191234
8.205,-0.035409035409,-0.00616250708278
8.21,-0.045177045177,-0.0222279351609
8.215,-0.115995115995,-0.0371801938261
8.22,-0.115995115995,-0.0558104299501
8.225,-0.0757020757021,-0.0742199296004
8.23,-0.139194139194,-0.0883352369602
8.235,-0.141636141636,-0.101845819768
8.24,-0.0830280830281,-0.113016537405
8.245,-0.123321123321,-0.117539233189
8.25,-0.157509157509,-0.120548831433
8.255,-0.0989010989011,-0.124568323482
8.26,-0.0891330891331,-0.124061937028
8.265,-0.168498168498,-0.121479437207
8.27,-0.126984126984,-0.123309195737
8.275,-0.0903540903541,-0.125112526124
8.28,-0.140415140415,-0.123584765011
8.285,-0.120879120879,-0.122728417348
8.29,-0.0671550671551,-0.120388853946
8.295,-0.101343101343,-0.113470689009
8.3,-0.130647130647,-0.10760507299
8.305,-0.0744810744811,-0.105029288761
8.31,-0.0598290598291,-0.100040627401
8.315,-0.108669108669,-0.0930960176966
8.32,-0.0927960927961,-0.0895689023697
8.325,-0.0500610500611,-0.0871905346232
8.33,-0.0927960927961,-0.083112313194
8.335,-0.0903540903541,-0.0808094162982
8.34,-0.030525030525,-0.0787907071081
8.345,-0.0537240537241,-0.0727217857593
8.35,-0.0793650793651,-0.0663440714887
8.355,-0.0512820512821,-0.0631317763845
8.36,-0.034188034188,-0.0598722765297
8.365,-0.0659340659341,-0.0557828525427
8.37,-0.028083028083,-0.0524341606105
8.375,0.015873015873,-0.0460121515001
8.38,-0.0500610500611,-0.0365036604584
8.385,-0.0622710622711,-0.0318505880488
8.39,-0.01221001221,-0.0323028789618
8.395,-0.017094017094,-0.0313523549585
8.4,-0.0525030525031,-0.0296619990067
8.405,0.021978021978,-0.0279760283009
8.41,0.04884004884,-0.0201257183119
8.415,-0.0500610500611,-0.00934045893582
8.42,-0.028083028083,-0.00597382171507
8.425,0.021978021978,-0.00710229776833
8.43,-0.045177045177,-0.00769857660091
8.435,-0.037851037851,-0.0114716848204
8.44,0.042735042735,-0.0148154347875
8.445,-0.003663003663,-0.0116983095968
8.45,-0.0769230769231,-0.00992173041771
8.455,-0.023199023199,-0.0155535518499
8.46,-0.00610500610501,-0.0214239576333
8.465,-0.0586080586081,-0.0246949699153
8.47,-0.021978021978,-0.0284497113396
8.475,0.00610500610501,-0.0294964252551
8.48,-0.0586080586081,-0.0277226302126
8.485,-0.0512820512821,-0.0292261657712
8.49,0.021978021978,-0.0309938766587
8.495,-0.031746031746,-0.0279465085424
8.5,-0.0610500610501,-0.0260223512878
8.505,-0.00732600732601,-0.0277093576073
8.51,-0.00976800976801,-0.0273688066222
8.515,-0.0720390720391,-0.0267135159192
8.52,-0.047619047619,-0.0307558182168
8.525,-0.00854700854701,-0.0351796727588
8.53,-0.0525030525031,-0.0362711624742
8.535,-0.0537240537241,-0.0378317512928
8.54,0.003663003663,-0.0388281348125
8.545,-0.040293040293,-0.0361525371517
8.55,-0.0659340659341,-0.0347557761659
8.555,-0.002442002442,-0.0357102047655
8.56,-0.003663003663,-0.0330260462222
8.565,-0.0671550671551,-0.029160340252
8.57,-0.040293040293,-0.0301020026241
8.575,0.00976800976801,-0.0313754346866
8.58,-0.046398046398,-0.0293100870515
8.585,-0.0720390720391,-0.0300393425784
8.59,-0.00732600732601,-0.0339798951859
8.595,-0.023199023199,-0.0347171207816
8.6,-0.047619047619,-0.0333485838653
8.605,-0.010989010989,-0.0324924601673
8.61,-0.015873015873,-0.030018554156
8.615,-0.0647130647131,-0.0282193917362
8.62,-0.034188034188,-0.0304073631047
8.625,-0.00854700854701,-0.0324063788259
8.63,-0.039072039072,-0.0315778576163
8.635,-0.045177045177,-0.0314267213961
8.64,0.023199023199,-0.0304537534273
8.645,-0.03663003663,-0.0259891723832
8.65,-0.0927960927961,-0.0255879848058
8.655,-0.00732600732601,-0.031258469938
8.66,-0.00732600732601,-0.0335739824696
8.665,-0.0732600732601,-0.0329109715702
8.67,-0.035409035409,-0.0352426079237
8.675,0.028083028083,-0.035237178894
8.68,-0.046398046398,-0.0299151572988
8.685,-0.042735042735,-0.0267343363152
8.69,0.014652014652,-0.0256441479047
8.695,-0.032967032967,-0.0225163623735
8.7,-0.0659340659341,-0.0222305884039
8.705,-0.017094017094,-0.0263806138657
8.71,-0.00854700854701,-0.0285668079555
8.715,-0.0647130647131,-0.028933137559
8.72,-0.01221001221,-0.0307025711996
8.725,0.00976800976801,-0.0295685946981
8.73,-0.0561660561661,-0.02580776041
8.735,-0.041514041514,-0.0258424865308
8.74,0.015873015873,-0.0267799490199
8.745,-0.014652014652,-0.0234259150447
8.75,-0.0561660561661,-0.0206642796257
8.755,-0.013431013431,-0.0219705551681
8.76,-0.021978021978,-0.0234029531082
8.765,-0.0818070818071,-0.0262102188208
8.77,-0.045177045177,-0.0334001684246
8.775,-0.010989010989,-0.0392220817886
8.78,-0.0634920634921,-0.0408748163411
8.785,-0.0964590964591,-0.0449599171099
8.79,-0.041514041514,-0.0524164764159
8.795,-0.0683760683761,-0.057845815761
8.8,-0.0866910866911,-0.0620648605027
8.805,-0.039072039072,-0.0656423898265
8.81,-0.02442002442,-0.0640197385172
8.815,-0.0659340659341,-0.0585055154392
8.82,-0.029304029304,-0.053559395588
8.825,0.017094017094,-0.0462004423966
8.83,-0.021978021978,-0.0348445583163
8.835,0.03663003663,-0.0223792105946
8.84,0.241758241758,0.00139945001665
8.845,0.223443223443,0.0471389845751
8.85,0.0879120879121,0.096759785697
8.855,-0.00854700854701,0.121333725511
8.86,-0.13431013431,0.10810111287
8.865,-0.225885225885,0.0584388369499
8.87,-0.203907203907,-0.0132127939029
8.875,-0.139194139194,-0.0816688053698
8.88,-0.150183150183,-0.129443571956
8.885,-0.140415140415,-0.155809244493
8.89,-0.0659340659341,-0.162950243545
8.895,-0.0695970695971,-0.15216507699
8.9,-0.0744810744811,-0.13168108318
8.905,-0.017094017094,-0.108179170112
8.91,-0.003663003663,-0.0818407241766
8.915,-0.0622710622711,-0.0577845298473
8.92,-0.023199023199,-0.0422751274639
8.925,0.021978021978,-0.0308457183797
8.93,-0.0720390720391,-0.0218984542657
8.935,-0.0622710622711,-0.0219625946405
8.94,0.019536019536,-0.0261088564531
8.945,0,-0.0244004571032
8.95,-0.028083028083,-0.0194519860713
8.955,0.039072039072,-0.0142174245888
8.96,0,-0.00671009507158
8.965,-0.0695970695971,-0.00318787810174
8.97,-0.025641025641,-0.00847150164927
8.975,0.0512820512821,-0.0127174680577
8.98,-0.026862026862,-0.0101495609639
8.985,-0.028083028083,-0.00842193734733
8.99,0.0500610500611,-0.00753902296403
8.995,0.00610500610501,-0.00210871285678
9,-0.042735042735,0.00185232678953
9.005,0.019536019536,0.000698587520779
9.01,0.025641025641,0.00101614178512
9.015,-0.042735042735,0.00228033374509
9.02,-0.004884004884,-0.000504035093129
9.025,0.031746031746,-0.00273797234566
9.03,-0.028083028083,-0.00192324496302
9.035,0.00854700854701,-0.00189991186907
9.04,0.0793650793651,0.00161646031966
9.045,0.041514041514,0.0126794890053
9.05,-0.00976800976801,0.0228215845192
9.055,0.042735042735,0.0265837182163
9.06,0.030525030525,0.0284290101373
9.065,-0.018315018315,0.0280335104757
9.07,0.041514041514,0.0242995360871
9.075,0.0976800976801,0.0254706854592
9.08,0.014652014652,0.0329499958256
9.085,-0.017094017094,0.0356176702456
9.09,0.040293040293,0.0313147946847
9.095,0.001221001221,0.0264054864789
9.1,-0.041514041514,0.0191748249079
9.105,-0.003663003663,0.00813753108503
9.11,0.00976800976801,-0.000594804550924
9.115,-0.0891330891331,-0.00815933565389
9.12,-0.0854700854701,-0.0220900584188
9.125,-0.0695970695971,-0.0400734279395
9.13,-0.120879120879,-0.05746376858
9.135,-0.129426129426,-0.0757469643103
9.14,-0.0793650793651,-0.0919404348318
9.145,-0.113553113553,-0.10147064864
9.15,-0.161172161172,-0.109006864788
9.155,-0.108669108669,-0.11772037172
9.16,-0.0927960927961,-0.122025386356
9.165,-0.139194139194,-0.121621721613
9.17,-0.107448107448,-0.121060856365
9.175,-0.0683760683761,-0.117935131497
9.18,-0.111111111111,-0.111026774297
9.185,-0.123321123321,-0.106236547457
9.19,-0.0879120879121,-0.104836471888
9.195,-0.0952380952381,-0.102996332795
9.2,-0.115995115995,-0.101279320806
9.205,-0.0500610500611,-0.0991511218496
9.21,-0.0561660561661,-0.0923692858677
9.215,-0.124542124542,-0.0852260913509
9.22,-0.0915750915751,-0.084292718829
9.225,-0.031746031746,-0.083938277007
9.23,-0.0830280830281,-0.079258824653
9.235,-0.0964590964591,-0.0759068068602
9.24,-0.041514041514,-0.0748963888614
9.245,-0.0634920634921,-0.071788101721
9.25,-0.0976800976801,-0.0692918331604
9.255,-0.020757020757,-0.0681767891492
9.26,0.002442002442,-0.0613565467903
9.265,-0.0732600732601,-0.0507921858706
9.27,-0.0500610500611,-0.0451799545086
9.275,-0.00732600732601,-0.0424192535958
9.28,-0.0671550671551,-0.039317315218
9.285,-0.0549450549451,-0.0396052744027
9.29,0.013431013431,-0.0399864617467
9.295,-0.015873015873,-0.0348231157089
9.3,-0.0683760683761,-0.0298571226684
9.305,-0.023199023199,-0.0300164211074
9.31,0.003663003663,-0.0296816754249
9.315,-0.047619047619,-0.0269689700034
9.32,-0.034188034188,-0.026459999162
9.325,0.028083028083,-0.0253826343361
9.33,-0.0525030525031,-0.0215771611426
9.335,-0.0549450549451,-0.0218073241092
9.34,0.02442002442,-0.0242614259279
9.345,0.001221001221,-0.0212167979828
9.35,-0.035409035409,-0.016198625106
9.355,0.014652014652,-0.0132762536072
9.36,-0.00732600732601,-0.01000876238
9.365,-0.0732600732601,-0.00993450042923
9.37,-0.03663003663,-0.0168518017848
9.375,0.030525030525,-0.0224952630355
9.38,-0.042735042735,-0.0219647030496
9.385,-0.04884004884,-0.0224384756875
9.39,0.01221001221,-0.0244453071914
9.395,-0.032967032967,-0.0235688355633
9.4,-0.0622710622711,-0.0241397483948
9.405,0.004884004884,-0.027006963265
9.41,-0.013431013431,-0.0264752323678
9.415,-0.0854700854701,-0.0262850947139
9.42,-0.043956043956,-0.0318744140493
9.425,0.00732600732601,-0.036402083242
9.43,-0.0549450549451,-0.0357982336386
9.435,-0.0598290598291,-0.036386994125
9.44,0.004884004884,-0.0377916144389
9.445,-0.039072039072,-0.0356207128135
9.45,-0.0744810744811,-0.0347956115212
9.455,-0.00732600732601,-0.0369813974203
9.46,-0.019536019536,-0.0362454214605
9.465,-0.0866910866911,-0.0353348345872
9.47,-0.046398046398,-0.039406847825
9.475,0.014652014652,-0.0417420213477
9.48,-0.034188034188,-0.0375536830318
9.485,-0.037851037851,-0.0327886547016
9.49,0.023199023199,-0.0283939725942
9.495,-0.030525030525,-0.0220070394179
9.5,-0.0622710622711,-0.0194237828832
9.505,-0.00854700854701,-0.0221169054915
9.51,0.001221001221,-0.0229651724661
9.515,-0.046398046398,-0.0215667218071
9.52,-0.020757020757,-0.0220813824658
9.525,-0.003663003663,-0.0224844070136
9.53,-0.0720390720391,-0.0231524474679
9.535,-0.0732600732601,-0.0294039260297
9.54,-0.018315018315,-0.0379800907181
9.545,-0.047619047619,-0.0424557746284
9.55,-0.0879120879121,-0.0461166779766
9.555,-0.026862026862,-0.0509544054661
9.56,-0.001221001221,-0.0505214422927
9.565,-0.0512820512821,-0.0447035061176
9.57,-0.037851037851,-0.0401270911781
9.575,0.003663003663,-0.036160839848
9.58,-0.0549450549451,-0.0314804191462
9.585,-0.0683760683761,-0.0314242962019
9.59,0.001221001221,-0.0343850665204
9.595,-0.028083028083,-0.0338334072345
9.6,-0.0732600732601,-0.0332332438619
9.605,-0.00854700854701,-0.0352546864583
9.61,-0.003663003663,-0.0340805857644
9.615,-0.0818070818071,-0.0317205122593
9.62,-0.046398046398,-0.0345637243228
9.625,0.028083028083,-0.0363433416504
9.63,-0.031746031746,-0.0315261296122
9.635,-0.043956043956,-0.0270007912288
9.64,0.030525030525,-0.0239046638328
9.645,-0.019536019536,-0.0180835435806
9.65,-0.0708180708181,-0.0155449937262
9.655,-0.013431013431,-0.0194827886422
9.66,-0.00732600732601,-0.0226684606248
9.665,-0.0793650793651,-0.0250090401605
9.67,-0.0634920634921,-0.0321347909499
9.675,-0.023199023199,-0.0402990526182
9.68,-0.0793650793651,-0.0456087476707
9.685,-0.0769230769231,-0.0517453869652
9.69,-0.02442002442,-0.0571000236528
9.695,-0.0757020757021,-0.0584909443417
9.7,-0.0757020757021,-0.0599852047396
9.705,-0.00976800976801,-0.0605786333312
9.71,0.015873015873,-0.0533533368131
9.715,-0.045177045177,-0.0410249180154
9.72,0.042735042735,-0.0288559388437
9.725,0.172161172161,-0.00774548444995
9.73,0.168498168498,0.029694926918
9.735,0.217338217338,0.0761436145047
9.74,0.202686202686,0.122112890054
9.745,-0.040293040293,0.149055964244
9.75,-0.197802197802,0.131309743692
9.755,-0.174603174603,0.070188221483
9.76,-0.17094017094,-0.0059439958377
9.765,-0.196581196581,-0.0751848832272
9.77,-0.135531135531,-0.127640105717
9.775,-0.0708180708181,-0.154725354787
9.78,-0.111111111111,-0.157407155709
9.785,-0.0818070818071,-0.146972580111
9.79,-0.018315018315,-0.12823876503
9.795,-0.035409035409,-0.10245890453
9.8,-0.0695970695971,-0.0781961063044
9.805,0,-0.0598888151216
9.81,0.017094017094,-0.0422560098477
9.815,-0.0757020757021,-0.0277017144505
9.82,-0.025641025641,-0.0228108490907
9.825,0.0586080586081,-0.0193505506071
9.83,-0.023199023199,-0.0109237191302
9.835,-0.026862026862,-0.00543950073283
9.84,0.039072039072,-0.00348469571543
9.845,-0.031746031746,-0.000979045727156
9.85,-0.0622710622711,-0.00356529188031
9.855,0.028083028083,-0.0100936796309
9.86,0.029304029304,-0.0103716493445
9.865,-0.047619047619,-0.0067920431776
9.87,-0.018315018315,-0.00766479437469
9.875,0.039072039072,-0.00876375949202
9.88,-0.00976800976801,-0.00537768545709
9.885,-0.01221001221,-0.00238208160556
9.89,0.0586080586081,0.000657291628938
9.895,-0.001221001221,0.00681859825783
9.9,-0.037851037851,0.0094354921539
9.905,0.026862026862,0.00667200111472
9.91,0.03663003663,0.0065037770916
9.915,-0.031746031746,0.00837522988208
9.92,0.026862026862,0.0077501754762
9.925,0.0830280830281,0.0108567686802
9.93,0.00976800976801,0.0197315398068
9.935,0.002442002442,0.0252993757467
9.94,0.0561660561661,0.0266362476443
9.945,0.021978021978,0.0286872476923
9.95,-0.019536019536,0.0281199580029
9.955,0.0647130647131,0.0248488131224
9.96,0.0781440781441,0.0273290978728
9.965,-0.023199023199,0.0326309419696
9.97,0.032967032967,0.0322024874422
9.975,0.0757020757021,0.0315132508604
9.98,-0.02442002442,0.0327380589226
9.985,-0.040293040293,0.0266797750417
9.99,0.035409035409,0.0155664542432
9.995,-0.031746031746,0.0071720257458
10,-0.0793650793651,-0.00323666563104
